Energy(eV)           EEDF(eV^-(3/2))      Anisotropy(eV^-(3/2))
1.25000000000000e-02 5.19908102072056e-01 1.13969895875785e-02 
3.75000000000000e-02 5.19606064718950e-01 8.37236904639202e-03 
6.25000000000000e-02 5.19149301371571e-01 1.43604993678320e-02 
8.75000000000000e-02 5.18580021384534e-01 1.86211470007188e-02 
1.12500000000000e-01 5.17940085800302e-01 2.11489318773296e-02 
1.37500000000000e-01 5.17267713337329e-01 2.27326380988521e-02 
1.62500000000000e-01 5.16553102164984e-01 2.38689735664150e-02 
1.87500000000000e-01 5.15829984417378e-01 2.46931653064732e-02 
2.12500000000000e-01 5.15093357665576e-01 2.53642212718500e-02 
2.37500000000000e-01 5.14332633615064e-01 2.59576303082695e-02 
2.62500000000000e-01 5.13548997880817e-01 2.69059189373900e-02 
2.87500000000000e-01 5.12730332747196e-01 2.80554775309087e-02 
3.12500000000000e-01 5.11887772661474e-01 2.83441262345550e-02 
3.37500000000000e-01 5.11043953118261e-01 2.78838693210621e-02 
3.62500000000000e-01 5.10211081282124e-01 2.73120413551407e-02 
3.87500000000000e-01 5.09383611708845e-01 2.71948478980562e-02 
4.12500000000000e-01 5.08533078968870e-01 2.77832386720271e-02 
4.37500000000000e-01 5.07644001197770e-01 2.80460677851876e-02 
4.62500000000000e-01 5.06732332783415e-01 2.76811785029182e-02 
4.87500000000000e-01 5.05841512199642e-01 2.76313576669524e-02 
5.12500000000000e-01 5.04926486050044e-01 2.82916974402300e-02 
5.37500000000000e-01 5.03975677181987e-01 2.94287904928842e-02 
5.62500000000000e-01 5.02978302080356e-01 3.03522045404174e-02 
5.87500000000000e-01 5.01934793244383e-01 3.10162261543352e-02 
6.12500000000000e-01 5.00884301625490e-01 3.24883147736633e-02 
6.37500000000000e-01 4.99761633675483e-01 3.48112716135928e-02 
6.62500000000000e-01 4.98554974210327e-01 3.72176312418993e-02 
6.87500000000000e-01 4.97270354234680e-01 3.94628091337691e-02 
7.12500000000000e-01 4.95890958358807e-01 4.17771645924098e-02 
7.37500000000000e-01 4.94441042367056e-01 4.46907490757651e-02 
7.62500000000000e-01 4.92870308607698e-01 4.81927082710311e-02 
7.87500000000000e-01 4.91163882288445e-01 5.17750374764175e-02 
8.12500000000000e-01 4.89287102734572e-01 5.53553249385324e-02 
8.37500000000000e-01 4.87294357031752e-01 5.97118188154647e-02 
8.62500000000000e-01 4.85101840396849e-01 6.47972068412171e-02 
8.87500000000000e-01 4.82688943804481e-01 7.02865260220995e-02 
9.12500000000000e-01 4.80037047506975e-01 7.61041749911695e-02 
9.37500000000000e-01 4.77134857375747e-01 8.22557831167147e-02 
9.62500000000000e-01 4.73985798169810e-01 8.88701093378367e-02 
9.87500000000000e-01 4.70556463290251e-01 9.58789413714543e-02 
1.01250000000000e+00 4.66831024215808e-01 1.03099750289710e-01 
1.03750000000000e+00 4.62718587833418e-01 1.10350715830812e-01 
1.06250000000000e+00 4.58235323862090e-01 1.17757980193053e-01 
1.08750000000000e+00 4.53339303641808e-01 1.25194118439045e-01 
1.11250000000000e+00 4.48016230753048e-01 1.32555624419625e-01 
1.13750000000000e+00 4.42264339586704e-01 1.39824951869723e-01 
1.16250000000000e+00 4.36059991385010e-01 1.46980020594150e-01 
1.18750000000000e+00 4.29411516453062e-01 1.54046743373164e-01 
1.21250000000000e+00 4.22291506023263e-01 1.60940427596965e-01 
1.23750000000000e+00 4.14589729024382e-01 1.67458578690732e-01 
1.26250000000000e+00 4.06287473032151e-01 1.73447849028287e-01 
1.28750000000000e+00 3.97393641135841e-01 1.78724307760986e-01 
1.31250000000000e+00 3.87910795012497e-01 1.83069470859012e-01 
1.33750000000000e+00 3.77808967988838e-01 1.86261208867703e-01 
1.36250000000000e+00 3.67117201915773e-01 1.88154582538897e-01 
1.38750000000000e+00 3.55890829718928e-01 1.88673631087120e-01 
1.41250000000000e+00 3.44179589629345e-01 1.87807078069001e-01 
1.43750000000000e+00 3.32056409758133e-01 1.85621786278549e-01 
1.46250000000000e+00 3.19595733027323e-01 1.82266370009351e-01 
1.48750000000000e+00 3.06883657931749e-01 1.77944683603047e-01 
1.51250000000000e+00 2.94006973032378e-01 1.72910750210380e-01 
1.53750000000000e+00 2.81205343889215e-01 1.67383153788055e-01 
1.56250000000000e+00 2.68554105428658e-01 1.61616311243087e-01 
1.58750000000000e+00 2.56116476067014e-01 1.55794029055112e-01 
1.61250000000000e+00 2.43945360200241e-01 1.50031737174675e-01 
1.63750000000000e+00 2.32169184117532e-01 1.44361627161525e-01 
1.66250000000000e+00 2.20807771158559e-01 1.38814291763765e-01 
1.68750000000000e+00 2.09860645356480e-01 1.33355056335248e-01 
1.71250000000000e+00 1.99314261106284e-01 1.27933676003494e-01 
1.73750000000000e+00 1.89280380191304e-01 1.22468548782524e-01 
1.76250000000000e+00 1.79741395452794e-01 1.16948397930918e-01 
1.78750000000000e+00 1.70682413937919e-01 1.11365673849666e-01 
1.81250000000000e+00 1.62095618707654e-01 1.05752862396371e-01 
1.83750000000000e+00 1.53978566179503e-01 1.00192992491533e-01 
1.86250000000000e+00 1.46324988568949e-01 9.48037664158111e-02 
1.88750000000000e+00 1.39127943149451e-01 8.97011946474136e-02 
1.91250000000000e+00 1.32375721996248e-01 8.49676157989451e-02 
1.93750000000000e+00 1.26125093812402e-01 8.05842121031553e-02 
1.96250000000000e+00 1.20349096519626e-01 7.65465068151978e-02 
1.98750000000000e+00 1.15024544364918e-01 7.28119814646224e-02 
2.01250000000000e+00 1.10117853413144e-01 6.93128586920627e-02 
2.03750000000000e+00 1.05595348022014e-01 6.59928006850876e-02 
2.06250000000000e+00 1.01431914991008e-01 6.28319136719232e-02 
2.08750000000000e+00 9.75932068340454e-02 5.98233322473358e-02 
2.11250000000000e+00 9.40449801091589e-02 5.69405786189336e-02 
2.13750000000000e+00 9.07079103000863e-02 5.42030480462035e-02 
2.16250000000000e+00 8.75726844329794e-02 5.15990655485039e-02 
2.18750000000000e+00 8.46261642522217e-02 4.91221086186776e-02 
2.21250000000000e+00 8.18655008379333e-02 4.67633030012400e-02 
2.23750000000000e+00 7.92768613220104e-02 4.45369969826879e-02 
2.26250000000000e+00 7.68584838623726e-02 4.24485247516175e-02 
2.28750000000000e+00 7.46014593941176e-02 4.04961842718094e-02 
2.31250000000000e+00 7.24909267275327e-02 3.86763573917151e-02 
2.33750000000000e+00 7.05141706279507e-02 3.69791281543198e-02 
2.36250000000000e+00 6.86503380932192e-02 3.53885661306976e-02 
2.38750000000000e+00 6.68890251068751e-02 3.38817393664001e-02 
2.41250000000000e+00 6.52201477667234e-02 3.24498366588236e-02 
2.43750000000000e+00 6.36438203119701e-02 3.10856412442342e-02 
2.46250000000000e+00 6.21557872472283e-02 2.97936468675541e-02 
2.48750000000000e+00 6.07600107527979e-02 2.85791396954318e-02 
2.51250000000000e+00 5.94506419159277e-02 2.74482792790330e-02 
2.53750000000000e+00 5.82125941741726e-02 2.64030070043953e-02 
2.56250000000000e+00 5.70376595821373e-02 2.54346962680201e-02 
2.58750000000000e+00 5.59179797127769e-02 2.45294325517343e-02 
2.61250000000000e+00 5.48458989563618e-02 2.36707705204332e-02 
2.63750000000000e+00 5.38173775319130e-02 2.28469155680755e-02 
2.66250000000000e+00 5.28321245881653e-02 2.20530924577522e-02 
2.68750000000000e+00 5.18889251671767e-02 2.12924492041590e-02 
2.71250000000000e+00 5.09892874305168e-02 2.05714924530105e-02 
2.73750000000000e+00 5.01313198756859e-02 1.98992719656184e-02 
2.76250000000000e+00 4.93139060999439e-02 1.92771523423206e-02 
2.78750000000000e+00 4.85308855462498e-02 1.87010768356133e-02 
2.81250000000000e+00 4.77793764420264e-02 1.81606219699981e-02 
2.83750000000000e+00 4.70530806356306e-02 1.76485507690548e-02 
2.86250000000000e+00 4.63512351590652e-02 1.71570680219406e-02 
2.88750000000000e+00 4.56717399638416e-02 1.66847025447710e-02 
2.91250000000000e+00 4.50157920264624e-02 1.62336858260082e-02 
2.93750000000000e+00 4.43825655304452e-02 1.58091790370855e-02 
2.96250000000000e+00 4.37715963895818e-02 1.54135985888343e-02 
2.98750000000000e+00 4.31807811286815e-02 1.50467434204459e-02 
3.01250000000000e+00 4.26082761360412e-02 1.47045660124204e-02 
3.03750000000000e+00 4.20519570298471e-02 1.43813796260637e-02 
3.06250000000000e+00 4.15103742625696e-02 1.40720141149659e-02 
3.08750000000000e+00 4.09828411699738e-02 1.37736362026300e-02 
3.11250000000000e+00 4.04690895789652e-02 1.34859056970634e-02 
3.13750000000000e+00 3.99691776368816e-02 1.32107040167802e-02 
3.16250000000000e+00 3.94825627706424e-02 1.29509814795840e-02 
3.18750000000000e+00 3.90088664189930e-02 1.27077406711801e-02 
3.21250000000000e+00 3.85467553831604e-02 1.24796872829539e-02 
3.23750000000000e+00 3.80955294018915e-02 1.22638908340708e-02 
3.26250000000000e+00 3.76541340370969e-02 1.20571358021444e-02 
3.28750000000000e+00 3.72222269054806e-02 1.18566861560550e-02 
3.31250000000000e+00 3.67993737541926e-02 1.16618526588842e-02 
3.33750000000000e+00 3.63854564980333e-02 1.14731545706908e-02 
3.36250000000000e+00 3.59801831380962e-02 1.12913442817588e-02 
3.38750000000000e+00 3.55833913845252e-02 1.11166597869792e-02 
3.41250000000000e+00 3.51945321441086e-02 1.09488044301009e-02 
3.43750000000000e+00 3.48132654366014e-02 1.07868302859987e-02 
3.46250000000000e+00 3.44390874509294e-02 1.06295413781585e-02 
3.48750000000000e+00 3.40717585746915e-02 1.04758759972975e-02 
3.51250000000000e+00 3.37110646080270e-02 1.03256008087182e-02 
3.53750000000000e+00 3.33569598471781e-02 1.01789732974777e-02 
3.56250000000000e+00 3.30092731969420e-02 1.00365631528866e-02 
3.58750000000000e+00 3.26678908126206e-02 9.89933137687382e-03 
3.61250000000000e+00 3.23326524470206e-02 9.76825430760186e-03 
3.63750000000000e+00 3.20032937790791e-02 9.64302127612449e-03 
3.66250000000000e+00 3.16795430404657e-02 9.52220404550662e-03 
3.68750000000000e+00 3.13612987979849e-02 9.40482743518183e-03 
3.71250000000000e+00 3.10483711673033e-02 9.29081397767358e-03 
3.73750000000000e+00 3.07406757964203e-02 9.18034709620667e-03 
3.76250000000000e+00 3.04380346184336e-02 9.07338443987858e-03 
3.78750000000000e+00 3.01403206922374e-02 8.96953196689747e-03 
3.81250000000000e+00 2.98473342517690e-02 8.86850790602536e-03 
3.83750000000000e+00 2.95588751516581e-02 8.77011815841667e-03 
3.86250000000000e+00 2.92747779102788e-02 8.67408340730103e-03 
3.88750000000000e+00 2.89949357014167e-02 8.58013072077145e-03 
3.91250000000000e+00 2.87191953143541e-02 8.48832931488972e-03 
3.93750000000000e+00 2.84475967012887e-02 8.39891476990703e-03 
3.96250000000000e+00 2.81800248768180e-02 8.31203992411352e-03 
3.98750000000000e+00 2.79164338724755e-02 8.22774797522183e-03 
4.01250000000000e+00 2.76567524891633e-02 8.14599992580840e-03 
4.03750000000000e+00 2.74002846027278e-02 8.06680536905451e-03 
4.06250000000000e+00 2.71469148831608e-02 7.98998205807119e-03 
4.08750000000000e+00 2.68966549063874e-02 7.91537251786771e-03 
4.11250000000000e+00 2.66494157927164e-02 7.84290067148857e-03 
4.13750000000000e+00 2.64050453206088e-02 7.77248732544037e-03 
4.16250000000000e+00 2.61634664932103e-02 7.70399749898952e-03 
4.18750000000000e+00 2.59246049594863e-02 7.63733645169741e-03 
4.21250000000000e+00 2.56883772136145e-02 7.57248676716784e-03 
4.23750000000000e+00 2.54547679281005e-02 7.50943860524804e-03 
4.26250000000000e+00 2.52236932305600e-02 7.44819405409369e-03 
4.28750000000000e+00 2.49950786102312e-02 7.38875915557894e-03 
4.31250000000000e+00 2.47688531926766e-02 7.33111261438887e-03 
4.33750000000000e+00 2.45449597220846e-02 7.27520617692596e-03 
4.36250000000000e+00 2.43233331748148e-02 7.22096383337618e-03 
4.38750000000000e+00 2.41039094888545e-02 7.16826430736191e-03 
4.41250000000000e+00 2.38866291330489e-02 7.11699609177330e-03 
4.43750000000000e+00 2.36714156400973e-02 7.06707493822915e-03 
4.46250000000000e+00 2.34582715548134e-02 7.01843052988049e-03 
4.48750000000000e+00 2.32471463497668e-02 6.97102648178018e-03 
4.51250000000000e+00 2.30379921286042e-02 6.92469557742160e-03 
4.53750000000000e+00 2.28307812393714e-02 6.87918887216827e-03 
4.56250000000000e+00 2.26256366034662e-02 6.83440580188224e-03 
4.58750000000000e+00 2.24225229965919e-02 6.79036770987032e-03 
4.61250000000000e+00 2.22214060317208e-02 6.74702019995024e-03 
4.63750000000000e+00 2.20222459215190e-02 6.70427263340054e-03 
4.66250000000000e+00 2.18250217395906e-02 6.66205244141069e-03 
4.68750000000000e+00 2.16297066498922e-02 6.62032842953494e-03 
4.71250000000000e+00 2.14362754749156e-02 6.57907811704890e-03 
4.73750000000000e+00 2.12446869899056e-02 6.53829797315196e-03 
4.76250000000000e+00 2.10549172385092e-02 6.49814310460175e-03 
4.78750000000000e+00 2.08669337455376e-02 6.45889194154123e-03 
4.81250000000000e+00 2.06806967277901e-02 6.42066815698817e-03 
4.83750000000000e+00 2.04961842522655e-02 6.38347141824011e-03 
4.86250000000000e+00 2.03133743716325e-02 6.34730348520720e-03 
4.88750000000000e+00 2.01322282680140e-02 6.31214891665727e-03 
4.91250000000000e+00 1.99527084633663e-02 6.27785638626271e-03 
4.93750000000000e+00 1.97747513029030e-02 6.24416441197928e-03 
4.96250000000000e+00 1.95983386631234e-02 6.21093820645381e-03 
4.98750000000000e+00 1.94234506376444e-02 6.17816724038134e-03 
5.01250000000000e+00 1.92500669651295e-02 6.14584366736641e-03 
5.03750000000000e+00 1.90780108043381e-02 6.11406519495885e-03 
5.06250000000000e+00 1.89072540867037e-02 6.08296163119453e-03 
5.08750000000000e+00 1.87377512489879e-02 6.05254920348798e-03 
5.11250000000000e+00 1.85694707136624e-02 6.02266744721409e-03 
5.13750000000000e+00 1.84023735232573e-02 5.99311532677127e-03 
5.16250000000000e+00 1.82364487052925e-02 5.96380571990384e-03 
5.18750000000000e+00 1.80717105985426e-02 5.93473573607943e-03 
5.21250000000000e+00 1.79081503940246e-02 5.90589143810943e-03 
5.23750000000000e+00 1.77457435688309e-02 5.87724785998326e-03 
5.26250000000000e+00 1.75844803545613e-02 5.84878816072556e-03 
5.28750000000000e+00 1.74243521283168e-02 5.82050757209766e-03 
5.31250000000000e+00 1.72653514973111e-02 5.79240242998966e-03 
5.33750000000000e+00 1.71074536716358e-02 5.76447187750855e-03 
5.36250000000000e+00 1.69506500533732e-02 5.73671256917069e-03 
5.38750000000000e+00 1.67949320098083e-02 5.70912171229487e-03 
5.41250000000000e+00 1.66402912185850e-02 5.68169099888229e-03 
5.43750000000000e+00 1.64867197731575e-02 5.65442201944734e-03 
5.46250000000000e+00 1.63342090968265e-02 5.62733650896192e-03 
5.48750000000000e+00 1.61827502712763e-02 5.60044727816210e-03 
5.51250000000000e+00 1.60323344579190e-02 5.57373877430724e-03 
5.53750000000000e+00 1.58829764616580e-02 5.54717802346860e-03 
5.56250000000000e+00 1.57346692122787e-02 5.52075040401648e-03 
5.58750000000000e+00 1.55874052078451e-02 5.49445609587905e-03 
5.61250000000000e+00 1.54411770342454e-02 5.46829557941163e-03 
5.63750000000000e+00 1.52959700906315e-02 5.44227594225239e-03 
5.66250000000000e+00 1.51517769742571e-02 5.41640931651173e-03 
5.68750000000000e+00 1.50085899957722e-02 5.39070110812300e-03 
5.71250000000000e+00 1.48664014822285e-02 5.36515030024668e-03 
5.73750000000000e+00 1.47252111217274e-02 5.33974856652909e-03 
5.76250000000000e+00 1.45850116566561e-02 5.31448560211442e-03 
5.78750000000000e+00 1.44457960922633e-02 5.28936149781009e-03 
5.81250000000000e+00 1.43075573212833e-02 5.26437309775663e-03 
5.83750000000000e+00 1.41702816788514e-02 5.23951591655399e-03 
5.86250000000000e+00 1.40339624891570e-02 5.21480370362570e-03 
5.88750000000000e+00 1.38985922437359e-02 5.19025304993504e-03 
5.91250000000000e+00 1.37641559514646e-02 5.16587219075602e-03 
5.93750000000000e+00 1.36305959899683e-02 5.14167305897415e-03 
5.96250000000000e+00 1.34979051217197e-02 5.11765416852997e-03 
5.98750000000000e+00 1.33660761553208e-02 5.09381323873366e-03 
6.01250000000000e+00 1.32351019797658e-02 5.07009106734497e-03 
6.03750000000000e+00 1.31047935004350e-02 5.04638658783864e-03 
6.06250000000000e+00 1.29751254441876e-02 5.02261710242211e-03 
6.08750000000000e+00 1.28460984559205e-02 4.99877242602709e-03 
6.11250000000000e+00 1.27177139072492e-02 4.97486307322114e-03 
6.13750000000000e+00 1.25900005482040e-02 4.95090194902202e-03 
6.16250000000000e+00 1.24629589798051e-02 4.92689716979340e-03 
6.18750000000000e+00 1.23365897359052e-02 4.90285033332423e-03 
6.21250000000000e+00 1.22108930743587e-02 4.87875364101273e-03 
6.23750000000000e+00 1.20858702421757e-02 4.85459562597826e-03 
6.26250000000000e+00 1.19615221459173e-02 4.83038420510967e-03 
6.28750000000000e+00 1.18378492064854e-02 4.80613118124938e-03 
6.31250000000000e+00 1.17148517085391e-02 4.78184366048733e-03 
6.33750000000000e+00 1.15925296832600e-02 4.75752464139356e-03 
6.36250000000000e+00 1.14708833042574e-02 4.73316782216506e-03 
6.38750000000000e+00 1.13499129749087e-02 4.70877114184713e-03 
6.41250000000000e+00 1.12296189768710e-02 4.68432139548030e-03 
6.43750000000000e+00 1.11100032002677e-02 4.65979342281493e-03 
6.46250000000000e+00 1.09910672042348e-02 4.63518538075429e-03 
6.48750000000000e+00 1.08728121330488e-02 4.61050765055610e-03 
6.51250000000000e+00 1.07552390418689e-02 4.58577269136656e-03 
6.53750000000000e+00 1.06383482940341e-02 4.56099666855544e-03 
6.56250000000000e+00 1.05221401073965e-02 4.53618569166944e-03 
6.58750000000000e+00 1.04066147789880e-02 4.51134173296737e-03 
6.61250000000000e+00 1.02917724357253e-02 4.48646272514066e-03 
6.63750000000000e+00 1.01776195995913e-02 4.46154169942191e-03 
6.66250000000000e+00 1.00641566591345e-02 4.43658177941493e-03 
6.68750000000000e+00 9.95138376741649e-03 4.41158983755868e-03 
6.71250000000000e+00 9.83930098384233e-03 4.38657609925022e-03 
6.73750000000000e+00 9.72790777010190e-03 4.36155655486323e-03 
6.76250000000000e+00 9.61720337263674e-03 4.33654227927751e-03 
6.78750000000000e+00 9.50718687904946e-03 4.31153809345305e-03 
6.81250000000000e+00 9.39785728988623e-03 4.28655111454911e-03 
6.83750000000000e+00 9.28921136664922e-03 4.26158587282556e-03 
6.86250000000000e+00 9.18124796798162e-03 4.23663727892459e-03 
6.88750000000000e+00 9.07396596423367e-03 4.21170333018398e-03 
6.91250000000000e+00 8.96736429202890e-03 4.18678530864052e-03 
6.93750000000000e+00 8.86141340025640e-03 4.16188540380784e-03 
6.96250000000000e+00 8.75611262653943e-03 4.13700023178862e-03 
6.98750000000000e+00 8.65146128339762e-03 4.11213236846675e-03 
7.01250000000000e+00 8.54745800411671e-03 4.08725807914207e-03 
7.03750000000000e+00 8.44407503734911e-03 4.06233286653837e-03 
7.06250000000000e+00 8.34131433155869e-03 4.03733532166006e-03 
7.08750000000000e+00 8.23917768663710e-03 4.01227270268896e-03 
7.11250000000000e+00 8.13766673265965e-03 3.98700363731709e-03 
7.13750000000000e+00 8.03669691049414e-03 3.96127339234588e-03 
7.16250000000000e+00 7.93628461898390e-03 3.93496551138052e-03 
7.18750000000000e+00 7.83644541562838e-03 3.90810768665960e-03 
7.21250000000000e+00 7.73719437663997e-03 3.88072561000557e-03 
7.23750000000000e+00 7.63854564312586e-03 3.85284371697815e-03 
7.26250000000000e+00 7.54051318672290e-03 3.82447763787404e-03 
7.28750000000000e+00 7.44311066673723e-03 3.79564373703050e-03 
7.31250000000000e+00 7.34635125381428e-03 3.76635778847668e-03 
7.33750000000000e+00 7.25024815741755e-03 3.73663081034694e-03 
7.36250000000000e+00 7.15481406882677e-03 3.70647875225561e-03 
7.38750000000000e+00 7.06006116466431e-03 3.67592180944997e-03 
7.41250000000000e+00 6.96600115130493e-03 3.64501256447106e-03 
7.43750000000000e+00 6.87265798999977e-03 3.61383076448202e-03 
7.46250000000000e+00 6.78003894501826e-03 3.58242711281835e-03 
7.48750000000000e+00 6.68815087085153e-03 3.55081774466282e-03 
7.51250000000000e+00 6.59700026028741e-03 3.51901699752639e-03 
7.53750000000000e+00 6.50659329745875e-03 3.48703831498507e-03 
7.56250000000000e+00 6.41693579996384e-03 3.45489464311849e-03 
7.58750000000000e+00 6.32803327479218e-03 3.42259930378568e-03 
7.61250000000000e+00 6.23989088370495e-03 3.39016615524755e-03 
7.63750000000000e+00 6.15251344814827e-03 3.35760854733894e-03 
7.66250000000000e+00 6.06590544323008e-03 3.32493863736023e-03 
7.68750000000000e+00 5.98007107110941e-03 3.29216849227539e-03 
7.71250000000000e+00 5.89501421694167e-03 3.25931078053677e-03 
7.73750000000000e+00 5.81075198271237e-03 3.22637025835612e-03 
7.76250000000000e+00 5.72728760974733e-03 3.19335303029155e-03 
