Energy(eV)           EEDF(eV^-(3/2))      Anisotropy(eV^-(3/2))
1.50000000000000e-02 4.99034609616437e-01 8.81294753963272e-03 
4.50000000000000e-02 4.98794525792081e-01 6.92828967201134e-03 
7.50000000000000e-02 4.98378405763701e-01 1.24918027184755e-02 
1.05000000000000e-01 4.97826295604702e-01 1.63693631410802e-02 
1.35000000000000e-01 4.97204047273907e-01 1.88477167825839e-02 
1.65000000000000e-01 4.96505847710454e-01 2.05892658457415e-02 
1.95000000000000e-01 4.95778001810097e-01 2.17616765249159e-02 
2.25000000000000e-01 4.95021337221649e-01 2.26393854750864e-02 
2.55000000000000e-01 4.94226831924216e-01 2.38667741290888e-02 
2.85000000000000e-01 4.93377181911140e-01 2.52440206937007e-02 
3.15000000000000e-01 4.92491601065928e-01 2.56797203123251e-02 
3.45000000000000e-01 4.91596382793844e-01 2.53174234135723e-02 
3.75000000000000e-01 4.90710395256330e-01 2.54232921999452e-02 
4.05000000000000e-01 4.89783628961578e-01 2.61600556905944e-02 
4.35000000000000e-01 4.88810538033163e-01 2.63048087006879e-02 
4.65000000000000e-01 4.87817487757856e-01 2.59750779983118e-02 
4.95000000000000e-01 4.86834982628282e-01 2.66477483589621e-02 
5.25000000000000e-01 4.85781136212906e-01 2.82870054636436e-02 
5.55000000000000e-01 4.84653310327514e-01 2.93304680364206e-02 
5.85000000000000e-01 4.83472324962287e-01 2.98550265288234e-02 
6.15000000000000e-01 4.82291375539695e-01 3.13997485658029e-02 
6.45000000000000e-01 4.81018806468024e-01 3.39315851116945e-02 
6.75000000000000e-01 4.79638235370681e-01 3.63439316320607e-02 
7.05000000000000e-01 4.78129630706367e-01 3.86245009436097e-02 
7.35000000000000e-01 4.76558804096009e-01 4.19263861569588e-02 
7.65000000000000e-01 4.74818456758820e-01 4.62410579626814e-02 
7.95000000000000e-01 4.72879667382668e-01 5.10123448842585e-02 
8.25000000000000e-01 4.70699186744629e-01 5.60718717002076e-02 
8.55000000000000e-01 4.68289210373016e-01 6.18418447792669e-02 
8.85000000000000e-01 4.65579582405528e-01 6.83398870834478e-02 
9.15000000000000e-01 4.62537019029234e-01 7.53687625721308e-02 
9.45000000000000e-01 4.59152523253586e-01 8.29138920111878e-02 
9.75000000000000e-01 4.55397539097768e-01 9.08919327060131e-02 
1.00500000000000e+00 4.51249354138966e-01 9.91338003561623e-02 
1.03500000000000e+00 4.46633677387946e-01 1.07418730752236e-01 
1.06500000000000e+00 4.41501683425156e-01 1.15666540638232e-01 
1.09500000000000e+00 4.35826478764263e-01 1.23793679774869e-01 
1.12500000000000e+00 4.29595079796796e-01 1.31695291140432e-01 
1.15500000000000e+00 4.22781286203424e-01 1.39378583629188e-01 
1.18500000000000e+00 4.15413375051729e-01 1.47011821782684e-01 
1.21500000000000e+00 4.07435999860356e-01 1.54519471094653e-01 
1.24500000000000e+00 3.98693282404119e-01 1.61649994971625e-01 
1.27500000000000e+00 3.89158239537130e-01 1.68182050159223e-01 
1.30500000000000e+00 3.78819083146181e-01 1.73765443320246e-01 
1.33500000000000e+00 3.67644230341316e-01 1.78023693253559e-01 
1.36500000000000e+00 3.55642841977558e-01 1.80647074644599e-01 
1.39500000000000e+00 3.42892981059481e-01 1.81437491958125e-01 
1.42500000000000e+00 3.29475445197828e-01 1.80320368865130e-01 
1.45500000000000e+00 3.15507202515301e-01 1.77383212946271e-01 
1.48500000000000e+00 3.01129749553369e-01 1.72886121710370e-01 
1.51500000000000e+00 2.86496314113803e-01 1.67237956996695e-01 
1.54500000000000e+00 2.71959799781930e-01 1.60839439445063e-01 
1.57500000000000e+00 2.57648504058203e-01 1.54130444450266e-01 
1.60500000000000e+00 2.43664937643572e-01 1.47447817819987e-01 
1.63500000000000e+00 2.30157587669316e-01 1.40973333290240e-01 
1.66500000000000e+00 2.17198554837989e-01 1.34763077045273e-01 
1.69500000000000e+00 2.04777176692081e-01 1.28762587249428e-01 
1.72500000000000e+00 1.92923788693582e-01 1.22824420510882e-01 
1.75500000000000e+00 1.81716072052577e-01 1.16766184804367e-01 
1.78500000000000e+00 1.71138784653849e-01 1.10510162111888e-01 
1.81500000000000e+00 1.61191785622466e-01 1.04087269099237e-01 
1.84500000000000e+00 1.51878792835333e-01 9.76544876755614e-02 
1.87500000000000e+00 1.43204395766047e-01 9.14397468175846e-02 
1.90500000000000e+00 1.35148112463184e-01 8.56695011897802e-02 
1.93500000000000e+00 1.27764277529449e-01 8.04414690870580e-02 
1.96500000000000e+00 1.21041925960062e-01 7.57668792875035e-02 
1.99500000000000e+00 1.14927934500490e-01 7.15581949372815e-02 
2.02500000000000e+00 1.09375539064942e-01 6.76738894793042e-02 
2.05500000000000e+00 1.04329750043744e-01 6.39925587483504e-02 
2.08500000000000e+00 9.97416356345676e-02 6.04464713571616e-02 
2.11500000000000e+00 9.55609961021304e-02 5.70138250850892e-02 
2.14500000000000e+00 9.16745725567563e-02 5.37529650638261e-02 
2.17500000000000e+00 8.80642945946975e-02 5.06840363912765e-02 
2.20500000000000e+00 8.47192194622574e-02 4.78295068875234e-02 
2.23500000000000e+00 8.16206496859170e-02 4.51962378619589e-02 
2.26500000000000e+00 7.87574605946990e-02 4.27718941431029e-02 
2.29500000000000e+00 7.61171830978352e-02 4.05301833767851e-02 
2.32500000000000e+00 7.36740782803545e-02 3.84410857498053e-02 
2.35500000000000e+00 7.14034331440430e-02 3.64821779355633e-02 
2.38500000000000e+00 6.92820717265218e-02 3.46399825494065e-02 
2.41500000000000e+00 6.72927970989505e-02 3.29107606986474e-02 
2.44500000000000e+00 6.54334285104865e-02 3.12980191380312e-02 
2.47500000000000e+00 6.37005834209915e-02 2.98029722439995e-02 
2.50500000000000e+00 6.20909386798100e-02 2.84231548748274e-02 
2.53500000000000e+00 6.05912075880039e-02 2.71577977545564e-02 
2.56500000000000e+00 5.91813164195069e-02 2.59918418307596e-02 
2.59500000000000e+00 5.78485389035087e-02 2.49060971474423e-02 
2.62500000000000e+00 5.65835390356445e-02 2.38835275944817e-02 
2.65500000000000e+00 5.53775244101601e-02 2.29110319756358e-02 
2.68500000000000e+00 5.42319438346087e-02 2.19906155075255e-02 
2.71500000000000e+00 5.31477759932807e-02 2.11312778088087e-02 
2.74500000000000e+00 5.21218600707338e-02 2.03387461820047e-02 
2.77500000000000e+00 5.11518087641755e-02 1.96130594662538e-02 
2.80500000000000e+00 5.02290416977666e-02 1.89428548896444e-02 
2.83500000000000e+00 4.93443728774634e-02 1.83142410893284e-02 
2.86500000000000e+00 4.84945450347313e-02 1.77190302684075e-02 
2.89500000000000e+00 4.76767620952072e-02 1.71541430943570e-02 
2.92500000000000e+00 4.68916564771595e-02 1.66238011546042e-02 
2.95500000000000e+00 4.61393094467841e-02 1.61337629363905e-02 
2.98500000000000e+00 4.54163600710127e-02 1.56833612076724e-02 
3.01500000000000e+00 4.47201131901748e-02 1.52678375645070e-02 
3.04500000000000e+00 4.40470514998161e-02 1.48791229669462e-02 
3.07500000000000e+00 4.33942817793483e-02 1.45098710911869e-02 
3.10500000000000e+00 4.27616130850775e-02 1.41582293944783e-02 
3.13500000000000e+00 4.21483304012762e-02 1.38249798069968e-02 
3.16500000000000e+00 4.15542163175112e-02 1.35123984005262e-02 
3.19500000000000e+00 4.09784765043868e-02 1.32222486922703e-02 
3.22500000000000e+00 4.04189259720590e-02 1.29520470624599e-02 
3.25500000000000e+00 3.98743110103892e-02 1.26970983050083e-02 
3.28500000000000e+00 3.93433489033328e-02 1.24529948005949e-02 
3.31500000000000e+00 3.88253751131766e-02 1.22175903189811e-02 
3.34500000000000e+00 3.83201491040328e-02 1.19916817390508e-02 
3.37500000000000e+00 3.78272077704676e-02 1.17758726252966e-02 
3.40500000000000e+00 3.73460396844268e-02 1.15699678361848e-02 
3.43500000000000e+00 3.68759277635807e-02 1.13729579987173e-02 
3.46500000000000e+00 3.64160121537454e-02 1.11829020541362e-02 
3.49500000000000e+00 3.59658645565385e-02 1.09983420464905e-02 
3.52500000000000e+00 3.55251797169083e-02 1.08189961685016e-02 
3.55500000000000e+00 3.50938034937496e-02 1.06454098103057e-02 
3.58500000000000e+00 3.46714943661900e-02 1.04788509762067e-02 
3.61500000000000e+00 3.42580073775888e-02 1.03206864823774e-02 
3.64500000000000e+00 3.38528631403209e-02 1.01706340288964e-02 
3.67500000000000e+00 3.34557470637717e-02 1.00266444974817e-02 
3.70500000000000e+00 3.30663671441336e-02 9.88757274654376e-03 
3.73500000000000e+00 3.26845157323783e-02 9.75353347356858e-03 
3.76500000000000e+00 3.23099414517263e-02 9.62455383464664e-03 
3.79500000000000e+00 3.19424111818525e-02 9.50012986150963e-03 
3.82500000000000e+00 3.15815669798438e-02 9.37970524368393e-03 
3.85500000000000e+00 3.12270881625607e-02 9.26283624250165e-03 
3.88500000000000e+00 3.08787435729349e-02 9.14906139873225e-03 
3.91500000000000e+00 3.05363045212802e-02 9.03835412429366e-03 
3.94500000000000e+00 3.01998022495159e-02 8.93110409134211e-03 
3.97500000000000e+00 2.98690407574668e-02 8.82758796704717e-03 
4.00500000000000e+00 2.95439876500610e-02 8.72774438612835e-03 
4.03500000000000e+00 2.92238607311505e-02 8.63154180193453e-03 
4.06500000000000e+00 2.89081698064216e-02 8.53873849469058e-03 
4.09500000000000e+00 2.85969116191174e-02 8.44911505200601e-03 
4.12500000000000e+00 2.82899011755840e-02 8.36259934872723e-03 
4.15500000000000e+00 2.79869331101412e-02 8.27901414105142e-03 
4.18500000000000e+00 2.76878768609329e-02 8.19810957771821e-03 
4.21500000000000e+00 2.73925956749304e-02 8.11979047115535e-03 
4.24500000000000e+00 2.71010503827559e-02 8.04403138985927e-03 
4.27500000000000e+00 2.68130996760401e-02 7.97080875262706e-03 
4.30500000000000e+00 2.65286254282264e-02 7.90010872527150e-03 
4.33500000000000e+00 2.62475234997548e-02 7.83189314513519e-03 
4.36500000000000e+00 2.59696895113029e-02 7.76603793749317e-03 
4.39500000000000e+00 2.56950181965545e-02 7.70235450563670e-03 
4.42500000000000e+00 2.54233937852170e-02 7.64066763393603e-03 
4.45500000000000e+00 2.51547533703303e-02 7.58084214018162e-03 
4.48500000000000e+00 2.48890460254274e-02 7.52278372164948e-03 
4.51500000000000e+00 2.46261907201884e-02 7.46624775747969e-03 
4.54500000000000e+00 2.43661789373111e-02 7.41085195519991e-03 
4.57500000000000e+00 2.41091447139226e-02 7.35643754244524e-03 
4.60500000000000e+00 2.38550308841834e-02 7.30301044685183e-03 
4.63500000000000e+00 2.36037730103462e-02 7.25046869964210e-03 
4.66500000000000e+00 2.33553301901323e-02 7.19869186084790e-03 
4.69500000000000e+00 2.31096580291207e-02 7.14760494541137e-03 
4.72500000000000e+00 2.28667059196882e-02 7.09717796109991e-03 
4.75500000000000e+00 2.26264160023334e-02 7.04755769101464e-03 
4.78500000000000e+00 2.23887379966864e-02 6.99908736486082e-03 
4.81500000000000e+00 2.21536095916139e-02 6.95200911824993e-03 
4.84500000000000e+00 2.19209972366137e-02 6.90637254907421e-03 
4.87500000000000e+00 2.16908569228421e-02 6.86217972715627e-03 
4.90500000000000e+00 2.14631244080595e-02 6.81928663636221e-03 
4.93500000000000e+00 2.12377136114195e-02 6.77736598581268e-03 
4.96500000000000e+00 2.10145723193355e-02 6.73616098900485e-03 
4.99500000000000e+00 2.07936681111268e-02 6.69559417806081e-03 
5.02500000000000e+00 2.05748873118910e-02 6.65565550772150e-03 
5.05500000000000e+00 2.03580374605352e-02 6.61645167554772e-03 
5.08500000000000e+00 2.01430557357504e-02 6.57813815011840e-03 
5.11500000000000e+00 1.99298807899690e-02 6.54059607090947e-03 
5.14500000000000e+00 1.97184524883684e-02 6.50352154404182e-03 
5.17500000000000e+00 1.95087628152797e-02 6.46678481581742e-03 
5.20500000000000e+00 1.93008233260472e-02 6.43036517785476e-03 
5.23500000000000e+00 1.90946020455106e-02 6.39422856512527e-03 
5.26500000000000e+00 1.88900752716557e-02 6.35835073796574e-03 
5.29500000000000e+00 1.86872288665691e-02 6.32272322083656e-03 
5.32500000000000e+00 1.84860414643023e-02 6.28734245755170e-03 
5.35500000000000e+00 1.82864821944701e-02 6.25220609198021e-03 
5.38500000000000e+00 1.80885363382081e-02 6.21730705519957e-03 
5.41500000000000e+00 1.78921896298131e-02 6.18263499729603e-03 
5.44500000000000e+00 1.76974285836196e-02 6.14818942720187e-03 
5.47500000000000e+00 1.75042390164741e-02 6.11399276716527e-03 
5.50500000000000e+00 1.73126061568701e-02 6.08005025510603e-03 
5.53500000000000e+00 1.71225390930836e-02 6.04632332236862e-03 
5.56500000000000e+00 1.69340372504414e-02 6.01278053943214e-03 
5.59500000000000e+00 1.67470882064758e-02 5.97942081318020e-03 
5.62500000000000e+00 1.65616755852950e-02 5.94625638384003e-03 
5.65500000000000e+00 1.63777793381410e-02 5.91330355403208e-03 
5.68500000000000e+00 1.61953864972034e-02 5.88057320587078e-03 
5.71500000000000e+00 1.60144838960747e-02 5.84805977566482e-03 
5.74500000000000e+00 1.58350701611052e-02 5.81574309686997e-03 
5.77500000000000e+00 1.56571332818292e-02 5.78361581060988e-03 
5.80500000000000e+00 1.54806613585134e-02 5.75167972814946e-03 
5.83500000000000e+00 1.53056355534387e-02 5.71993771970281e-03 
5.86500000000000e+00 1.51320405721901e-02 5.68840698484931e-03 
5.89500000000000e+00 1.49598618219166e-02 5.65710962504969e-03 
5.92500000000000e+00 1.47890517856320e-02 5.62606074300000e-03 
5.95500000000000e+00 1.46195473180162e-02 5.59527038811873e-03 
5.98500000000000e+00 1.44513360632976e-02 5.56473708433575e-03 
6.01500000000000e+00 1.42844057894266e-02 5.53436743783158e-03 
6.04500000000000e+00 1.41184654913602e-02 5.50400577325086e-03 
6.07500000000000e+00 1.39534843293637e-02 5.47353143948791e-03 
6.10500000000000e+00 1.37894643558093e-02 5.44294210782777e-03 
6.13500000000000e+00 1.36264357749329e-02 5.41225679942731e-03 
6.16500000000000e+00 1.34644140075860e-02 5.38149440576068e-03 
6.19500000000000e+00 1.33034001314017e-02 5.35065957289012e-03 
6.22500000000000e+00 1.31433951719291e-02 5.31974425359647e-03 
6.25500000000000e+00 1.29844008215428e-02 5.28874394027423e-03 
6.28500000000000e+00 1.28264183163753e-02 5.25766760702933e-03 
6.31500000000000e+00 1.26694483814373e-02 5.22652814382871e-03 
6.34500000000000e+00 1.25134915006068e-02 5.19532979537161e-03 
6.37500000000000e+00 1.23585482163995e-02 5.16406804829551e-03 
6.40500000000000e+00 1.22046192926401e-02 5.13272452136657e-03 
6.43500000000000e+00 1.20517071223249e-02 5.10126996382770e-03 
6.46500000000000e+00 1.18998145448735e-02 5.06969459741888e-03 
6.49500000000000e+00 1.17489438063582e-02 5.03801130447115e-03 
6.52500000000000e+00 1.15990965961385e-02 5.00624135500539e-03 
6.55500000000000e+00 1.14502737615228e-02 4.97440438050524e-03 
6.58500000000000e+00 1.13024759346180e-02 4.94251008749586e-03 
6.61500000000000e+00 1.11557035782631e-02 4.91055688513684e-03 
6.64500000000000e+00 1.10099671182915e-02 4.87853705537008e-03 
6.67500000000000e+00 1.08652672703001e-02 4.84645539216665e-03 
6.70500000000000e+00 1.07216043801869e-02 4.81432780235248e-03 
6.73500000000000e+00 1.05789780952621e-02 4.78217762779281e-03 
6.76500000000000e+00 1.04373873344076e-02 4.75002606183009e-03 
6.79500000000000e+00 1.02968306574380e-02 4.71788572042302e-03 
6.82500000000000e+00 1.01573053106611e-02 4.68576493639495e-03 
6.85500000000000e+00 1.00188074353279e-02 4.65366522797796e-03 
6.88500000000000e+00 9.88133511760884e-03 4.62158406053040e-03 
6.91500000000000e+00 9.74488658034999e-03 4.58952002015840e-03 
6.94500000000000e+00 9.60941675219436e-03 4.55747779644196e-03 
6.97500000000000e+00 9.47492455329896e-03 4.52545459101278e-03 
7.00500000000000e+00 9.34140881423368e-03 4.49342848781544e-03 
7.03500000000000e+00 9.20884029318168e-03 4.46134612653477e-03 
7.06500000000000e+00 9.07720798617812e-03 4.42916655165727e-03 
7.09500000000000e+00 8.94651508075216e-03 4.39681286160973e-03 
7.12500000000000e+00 8.81672048331070e-03 4.36401610325779e-03 
7.15500000000000e+00 8.68774835393548e-03 4.33046458719779e-03 
7.18500000000000e+00 8.55962708283764e-03 4.29605622266578e-03 
7.21500000000000e+00 8.43238384608693e-03 4.26083647298187e-03 
7.24500000000000e+00 8.30604427440261e-03 4.22484637069925e-03 
7.27500000000000e+00 8.18063337057163e-03 4.18811790250445e-03 
7.30500000000000e+00 8.05617531976980e-03 4.15067827373435e-03 
7.33500000000000e+00 7.93269387180491e-03 4.11255188291455e-03 
7.36500000000000e+00 7.81021207124447e-03 4.07376681851075e-03 
7.39500000000000e+00 7.68875188832176e-03 4.03437574541424e-03 
7.42500000000000e+00 7.56834073365576e-03 3.99448156284352e-03 
7.45500000000000e+00 7.44900918057592e-03 3.95419689051797e-03 
7.48500000000000e+00 7.33076992677652e-03 3.91358276493858e-03 
7.51500000000000e+00 7.21363493714820e-03 3.87266318922537e-03 
7.54500000000000e+00 7.09761561136589e-03 3.83146093153853e-03 
7.57500000000000e+00 6.98272259315482e-03 3.79000104336368e-03 
7.60500000000000e+00 6.86896576834781e-03 3.74830932684757e-03 
7.63500000000000e+00 6.75635430799899e-03 3.70640988516962e-03 
7.66500000000000e+00 6.64489666544260e-03 3.66432593801453e-03 
7.69500000000000e+00 6.53460064993641e-03 3.62208065171942e-03 
7.72500000000000e+00 6.42548033942061e-03 3.57969398735660e-03 
7.75500000000000e+00 6.31755589080559e-03 3.53717794954855e-03 
7.78500000000000e+00 6.21083313778533e-03 3.49454561073480e-03 
7.81500000000000e+00 6.10531753867154e-03 3.45181694801933e-03 
7.84500000000000e+00 6.00100655265166e-03 3.40901896337506e-03 
7.87500000000000e+00 5.89790416096758e-03 3.36617037760823e-03 
7.90500000000000e+00 5.79601398900105e-03 3.32328485925118e-03 
7.93500000000000e+00 5.69530961286766e-03 3.28038140927257e-03 
7.96500000000000e+00 5.59578011626424e-03 3.23746905271982e-03 
7.99500000000000e+00 5.49742915548065e-03 3.19459102219740e-03 
8.02500000000000e+00 5.40026908825170e-03 3.15186867437716e-03 
8.05500000000000e+00 5.30434099026419e-03 3.10939107983673e-03 
8.08500000000000e+00 5.20962125281796e-03 3.06716993074360e-03 
8.11500000000000e+00 5.11610502516100e-03 3.02519378402129e-03 
8.14500000000000e+00 5.02380424117548e-03 2.98347273449541e-03 
8.17500000000000e+00 4.93271235413014e-03 2.94202064904250e-03 
8.20500000000000e+00 4.84282054748400e-03 2.90084776918733e-03 
8.23500000000000e+00 4.75411837902595e-03 2.85996531509402e-03 
8.26500000000000e+00 4.66659699519730e-03 2.81938189997024e-03 
8.29500000000000e+00 4.58024916161360e-03 2.77910187010678e-03 
8.32500000000000e+00 4.49505512531023e-03 2.73912989514527e-03 
8.35500000000000e+00 4.41098326028912e-03 2.69947395722567e-03 
8.38500000000000e+00 4.32802591165793e-03 2.66013656590554e-03 
8.41500000000000e+00 4.24617623100763e-03 2.62109234011430e-03 
8.44500000000000e+00 4.16543077767096e-03 2.58228627342995e-03 
8.47500000000000e+00 4.08578596491818e-03 2.54369796470645e-03 
8.50500000000000e+00 4.00723785947081e-03 2.50532406809308e-03 
8.53500000000000e+00 3.92977238399355e-03 2.46714581233638e-03 
8.56500000000000e+00 3.85337633701191e-03 2.42915168815172e-03 
8.59500000000000e+00 3.77804741819825e-03 2.39133866013168e-03 
8.62500000000000e+00 3.70379170036190e-03 2.35368456478252e-03 
8.65500000000000e+00 3.63062395133967e-03 2.31615775552716e-03 
8.68500000000000e+00 3.55854323505393e-03 2.27875816903231e-03 
8.71500000000000e+00 3.48754815281386e-03 2.24149994289737e-03 
8.74500000000000e+00 3.41763686757569e-03 2.20439669019475e-03 
8.77500000000000e+00 3.34880710266248e-03 2.16746122030155e-03 
8.80500000000000e+00 3.28105616221617e-03 2.13070843475347e-03 
8.83500000000000e+00 3.21438066215829e-03 2.09415642374620e-03 
8.86500000000000e+00 3.14877668936066e-03 2.05782090744526e-03 
8.89500000000000e+00 3.08423994701435e-03 2.02171286301057e-03 
8.92500000000000e+00 3.02076453270688e-03 1.98584136082117e-03 
8.95500000000000e+00 2.95834308462291e-03 1.95021491751997e-03 
8.98500000000000e+00 2.89697055916651e-03 1.91484107802145e-03 
9.01500000000000e+00 2.83664161680770e-03 1.87975422993043e-03 
9.04500000000000e+00 2.77740516502395e-03 1.84498220922872e-03 
9.07500000000000e+00 2.71925091216879e-03 1.81055733413367e-03 
9.10500000000000e+00 2.66216843566391e-03 1.77648272630116e-03 
9.13500000000000e+00 2.60614267653258e-03 1.74276331314739e-03 
9.16500000000000e+00 2.55116091496263e-03 1.70940214289014e-03 
9.19500000000000e+00 2.49721262828869e-03 1.67640943509706e-03 
9.22500000000000e+00 2.44428476484810e-03 1.64382087001798e-03 
9.25500000000000e+00 2.39236163798345e-03 1.61167860097478e-03 
9.28500000000000e+00 2.34142958410180e-03 1.57999622301660e-03 
9.31500000000000e+00 2.29147503715140e-03 1.54877064827137e-03 
