Energy(eV)           EEDF(eV^-(3/2))      Anisotropy(eV^-(3/2))
1.25000000000000e-02 5.14258799864672e-01 1.09083265409480e-02 
3.75000000000000e-02 5.13978036956006e-01 8.02128329818487e-03 
6.25000000000000e-02 5.13552777329816e-01 1.37683473985520e-02 
8.75000000000000e-02 5.13021320894662e-01 1.78644514228609e-02 
1.12500000000000e-01 5.12421827644871e-01 2.03017026153332e-02 
1.37500000000000e-01 5.11790269115404e-01 2.18368293050139e-02 
1.62500000000000e-01 5.11117499629614e-01 2.29431851238020e-02 
1.87500000000000e-01 5.10435048442423e-01 2.37505123914324e-02 
2.12500000000000e-01 5.09738388035805e-01 2.44111917139293e-02 
2.37500000000000e-01 5.09017751573663e-01 2.49972900560592e-02 
2.62500000000000e-01 5.08274213952831e-01 2.59257049361308e-02 
2.87500000000000e-01 5.07496188823790e-01 2.70482332638063e-02 
3.12500000000000e-01 5.06694147220680e-01 2.73432759046728e-02 
3.37500000000000e-01 5.05889878654510e-01 2.69204567036397e-02 
3.62500000000000e-01 5.05094828423201e-01 2.63928724735753e-02 
3.87500000000000e-01 5.04303822210236e-01 2.63054750339957e-02 
4.12500000000000e-01 5.03489644273946e-01 2.69005245495192e-02 
4.37500000000000e-01 5.02637475722471e-01 2.71841252262909e-02 
4.62500000000000e-01 5.01762621465171e-01 2.68645840481017e-02 
4.87500000000000e-01 5.00906030832397e-01 2.68528555155220e-02 
5.12500000000000e-01 5.00024744924148e-01 2.75297348322643e-02 
5.37500000000000e-01 4.99107725675237e-01 2.86715912541858e-02 
5.62500000000000e-01 4.98144472252763e-01 2.96133206829015e-02 
5.87500000000000e-01 4.97135290719396e-01 3.03102572677911e-02 
6.12500000000000e-01 4.96117132102010e-01 3.17939913099478e-02 
6.37500000000000e-01 4.95027517487809e-01 3.41051969887811e-02 
6.62500000000000e-01 4.93854875717591e-01 3.65041396095407e-02 
6.87500000000000e-01 4.92604687972171e-01 3.87553688628976e-02 
7.12500000000000e-01 4.91260575139237e-01 4.10806224443329e-02 
7.37500000000000e-01 4.89845458692192e-01 4.39924996408876e-02 
7.62500000000000e-01 4.88310883152706e-01 4.74798980659641e-02 
7.87500000000000e-01 4.86642268931708e-01 5.10536839404783e-02 
8.12500000000000e-01 4.84805922687444e-01 5.46338071892074e-02 
8.37500000000000e-01 4.82853699415506e-01 5.89733494612889e-02 
8.62500000000000e-01 4.80704776829294e-01 6.40256767959992e-02 
8.87500000000000e-01 4.78338950991918e-01 6.94778373503741e-02 
9.12500000000000e-01 4.75737897174152e-01 7.52567597299728e-02 
9.37500000000000e-01 4.72890400191826e-01 8.13673722393571e-02 
9.62500000000000e-01 4.69799398482444e-01 8.79336027498108e-02 
9.87500000000000e-01 4.66432398706287e-01 9.48882945674990e-02 
1.01250000000000e+00 4.62773851877623e-01 1.02054046528855e-01 
1.03750000000000e+00 4.58734612546856e-01 1.09251240241916e-01 
1.06250000000000e+00 4.54329864031237e-01 1.16601052720706e-01 
1.08750000000000e+00 4.49518770984517e-01 1.23978107497827e-01 
1.11250000000000e+00 4.44287216583536e-01 1.31281909191928e-01 
1.13750000000000e+00 4.38633383436658e-01 1.38496347243493e-01 
1.16250000000000e+00 4.32534073195150e-01 1.45600064605242e-01 
1.18750000000000e+00 4.25996902046651e-01 1.52617690249271e-01 
1.21250000000000e+00 4.18995016073988e-01 1.59466563965806e-01 
1.23750000000000e+00 4.11419456478282e-01 1.65947192062485e-01 
1.26250000000000e+00 4.03251602599758e-01 1.71908096177817e-01 
1.28750000000000e+00 3.94499620619667e-01 1.77166711838540e-01 
1.31250000000000e+00 3.85165778231977e-01 1.81506839179333e-01 
1.33750000000000e+00 3.75220068768444e-01 1.84708461292266e-01 
1.36250000000000e+00 3.64690685923682e-01 1.86627437604404e-01 
1.38750000000000e+00 3.53631413429107e-01 1.87187454424292e-01 
1.41250000000000e+00 3.42090858864381e-01 1.86376573053454e-01 
1.43750000000000e+00 3.30140392361956e-01 1.84260430895789e-01 
1.46250000000000e+00 3.17852941418392e-01 1.80985413248695e-01 
1.48750000000000e+00 3.05312865562336e-01 1.76752604278697e-01 
1.51250000000000e+00 2.92605440433400e-01 1.71812737075001e-01 
1.53750000000000e+00 2.79967092794697e-01 1.66381926884773e-01 
1.56250000000000e+00 2.67472132156594e-01 1.60711432278175e-01 
1.58750000000000e+00 2.55183006252864e-01 1.54982665857389e-01 
1.61250000000000e+00 2.43152182457037e-01 1.49309303117072e-01 
1.63750000000000e+00 2.31506991367869e-01 1.43723023358359e-01 
1.66250000000000e+00 2.20267429101396e-01 1.38253943254602e-01 
1.68750000000000e+00 2.09433412768098e-01 1.32867608644627e-01 
1.71250000000000e+00 1.98991923134043e-01 1.27514130099852e-01 
1.73750000000000e+00 1.89054037176984e-01 1.22112813336099e-01 
1.76250000000000e+00 1.79602705737566e-01 1.16652519614802e-01 
1.78750000000000e+00 1.70623517853392e-01 1.11125872050412e-01 
1.81250000000000e+00 1.62109055497994e-01 1.05565317342682e-01 
1.83750000000000e+00 1.54057230680185e-01 1.00053706745692e-01 
1.86250000000000e+00 1.46462165355836e-01 9.47084951312986e-02 
1.88750000000000e+00 1.39317333989852e-01 8.96455056408497e-02 
1.91250000000000e+00 1.32611498441851e-01 8.49470276174106e-02 
1.93750000000000e+00 1.26401542977194e-01 8.05946652686545e-02 
1.96250000000000e+00 1.20661096562194e-01 7.65841424016623e-02 
1.98750000000000e+00 1.15367519867258e-01 7.28732616948842e-02 
2.01250000000000e+00 1.10487784213896e-01 6.93946222220027e-02 
2.03750000000000e+00 1.05988715385943e-01 6.60922474211376e-02 
2.06250000000000e+00 1.01845606360221e-01 6.29466044782472e-02 
2.08750000000000e+00 9.80245114850463e-02 5.99511904660524e-02 
2.11250000000000e+00 9.44915357208367e-02 5.70798999983905e-02 
2.13750000000000e+00 9.11678226831997e-02 5.43522814254992e-02 
2.16250000000000e+00 8.80442274190425e-02 5.17568641198789e-02 
2.18750000000000e+00 8.51077796297524e-02 4.92872196150892e-02 
2.21250000000000e+00 8.23557672959705e-02 4.69345382823678e-02 
2.23750000000000e+00 7.97745182444077e-02 4.47132054445116e-02 
2.26250000000000e+00 7.73623986269476e-02 4.26286361870677e-02 
2.28750000000000e+00 7.51106410461031e-02 4.06792354136744e-02 
2.31250000000000e+00 7.30045163310013e-02 3.88615336678682e-02 
2.33750000000000e+00 7.10314302429508e-02 3.71657738969575e-02 
2.36250000000000e+00 6.91706299343729e-02 3.55761351850185e-02 
2.38750000000000e+00 6.74117845763754e-02 3.40697324595763e-02 
2.41250000000000e+00 6.57448717247317e-02 3.26377925539158e-02 
2.43750000000000e+00 6.41700502248531e-02 3.12731343430853e-02 
2.46250000000000e+00 6.26831181267327e-02 2.99802864691948e-02 
2.48750000000000e+00 6.12880937008641e-02 2.87645867711702e-02 
2.51250000000000e+00 5.99791829989089e-02 2.76322931566406e-02 
2.53750000000000e+00 5.87413368881017e-02 2.65854726385299e-02 
2.56250000000000e+00 5.75663777046771e-02 2.56155614728131e-02 
2.58750000000000e+00 5.64464714524475e-02 2.47086521952979e-02 
2.61250000000000e+00 5.53739784167849e-02 2.38482880143627e-02 
2.63750000000000e+00 5.43448857856087e-02 2.30226548678750e-02 
2.66250000000000e+00 5.33589186744050e-02 2.22269772734669e-02 
2.68750000000000e+00 5.24148767414895e-02 2.14644243700832e-02 
2.71250000000000e+00 5.15142905792854e-02 2.07415429699852e-02 
2.73750000000000e+00 5.06552854268985e-02 2.00674405087444e-02 
2.76250000000000e+00 4.98367647657774e-02 1.94435144270605e-02 
2.78750000000000e+00 4.90525714902239e-02 1.88657206079567e-02 
2.81250000000000e+00 4.82998358090674e-02 1.83236122103169e-02 
2.83750000000000e+00 4.75722654517492e-02 1.78099298926677e-02 
2.86250000000000e+00 4.68691035766384e-02 1.73168574656289e-02 
2.88750000000000e+00 4.61882513322304e-02 1.68429271424232e-02 
2.91250000000000e+00 4.55309172268340e-02 1.63903904410567e-02 
2.93750000000000e+00 4.48962822095869e-02 1.59644422407243e-02 
2.96250000000000e+00 4.42838901707294e-02 1.55675203844033e-02 
2.98750000000000e+00 4.36916389091260e-02 1.51994328258265e-02 
3.01250000000000e+00 4.31176896656802e-02 1.48561121148895e-02 
3.03750000000000e+00 4.25599133348144e-02 1.45318376226086e-02 
3.06250000000000e+00 4.20168597845166e-02 1.42214117364465e-02 
3.08750000000000e+00 4.14878454024698e-02 1.39220027565131e-02 
3.11250000000000e+00 4.09726036982499e-02 1.36332988386367e-02 
3.13750000000000e+00 4.04711947941617e-02 1.33572037999343e-02 
3.16250000000000e+00 3.99830771886120e-02 1.30966720222772e-02 
3.18750000000000e+00 3.95078756706715e-02 1.28527098508323e-02 
3.21250000000000e+00 3.90442559178730e-02 1.26240165359231e-02 
3.23750000000000e+00 3.85915167224993e-02 1.24076400351143e-02 
3.26250000000000e+00 3.81486011664037e-02 1.22003568332529e-02 
3.28750000000000e+00 3.77151670730356e-02 1.19994354799785e-02 
3.31250000000000e+00 3.72907782351541e-02 1.18041936644282e-02 
3.33750000000000e+00 3.68753148407721e-02 1.16151652408832e-02 
3.36250000000000e+00 3.64684836602469e-02 1.14331207024102e-02 
3.38750000000000e+00 3.60701216601815e-02 1.12583059770822e-02 
3.41250000000000e+00 3.56796763452956e-02 1.10904144972611e-02 
3.43750000000000e+00 3.52968102279530e-02 1.09284737605936e-02 
3.46250000000000e+00 3.49210168317004e-02 1.07712705796148e-02 
3.48750000000000e+00 3.45520552915693e-02 1.06177349010541e-02 
3.51250000000000e+00 3.41897102817251e-02 1.04676313184843e-02 
3.53750000000000e+00 3.38339356507500e-02 1.03212217484820e-02 
3.56250000000000e+00 3.34845594714813e-02 1.01790772308395e-02 
3.58750000000000e+00 3.31414671094936e-02 1.00421402452690e-02 
3.61250000000000e+00 3.28044944350806e-02 9.91135302534699e-03 
3.63750000000000e+00 3.24733754127497e-02 9.78638835348843e-03 
3.66250000000000e+00 3.21478379534697e-02 9.66582849406872e-03 
3.68750000000000e+00 3.18277801648726e-02 9.54870620771725e-03 
3.71250000000000e+00 3.15130130817559e-02 9.43494133953784e-03 
3.73750000000000e+00 3.12034562641906e-02 9.32471637115609e-03 
3.76250000000000e+00 3.08989333979526e-02 9.21799652619871e-03 
3.78750000000000e+00 3.05993186182970e-02 9.11439689882437e-03 
3.81250000000000e+00 3.03044122879830e-02 9.01363512110468e-03 
3.83750000000000e+00 3.00140106453509e-02 8.91551158583701e-03 
3.86250000000000e+00 2.97279485350627e-02 8.81974247732198e-03 
3.88750000000000e+00 2.94461198031425e-02 8.72605337861248e-03 
3.91250000000000e+00 2.91683726407028e-02 8.63450937436943e-03 
3.93750000000000e+00 2.88947516458812e-02 8.54534134483570e-03 
3.96250000000000e+00 2.86251429405326e-02 8.45870125383861e-03 
3.98750000000000e+00 2.83595004519814e-02 8.37463027763428e-03 
4.01250000000000e+00 2.80977527405476e-02 8.29308552512754e-03 
4.03750000000000e+00 2.78391966042209e-02 8.21407280653042e-03 
4.06250000000000e+00 2.75837179947925e-02 8.13740697429322e-03 
4.08750000000000e+00 2.73313277914750e-02 8.06293088958165e-03 
4.11250000000000e+00 2.70819385378170e-02 7.99056929558735e-03 
4.13750000000000e+00 2.68354003351605e-02 7.92024520060027e-03 
4.16250000000000e+00 2.65916373037675e-02 7.85182636868261e-03 
4.18750000000000e+00 2.63505762049976e-02 7.78521794361167e-03 
4.21250000000000e+00 2.61121343677722e-02 7.72039957157780e-03 
4.23750000000000e+00 2.58762965382777e-02 7.65735919056022e-03 
4.26250000000000e+00 2.56429802737776e-02 7.59609743111331e-03 
4.28750000000000e+00 2.54121124637969e-02 7.53661927125603e-03 
4.31250000000000e+00 2.51836236074447e-02 7.47890340190567e-03 
4.33750000000000e+00 2.49574583748534e-02 7.42290230219690e-03 
4.36250000000000e+00 2.47335529889809e-02 7.36854126484789e-03 
4.38750000000000e+00 2.45118445455060e-02 7.31570071592502e-03 
4.41250000000000e+00 2.42922745743061e-02 7.26427070781908e-03 
4.43750000000000e+00 2.40747658962965e-02 7.21416848931436e-03 
4.46250000000000e+00 2.38593210411166e-02 7.16532448469138e-03 
4.48750000000000e+00 2.36458904300426e-02 7.11770249670721e-03 
4.51250000000000e+00 2.34344270989924e-02 7.07113835756495e-03 
4.53750000000000e+00 2.32249051385319e-02 7.02538787789108e-03 
4.56250000000000e+00 2.30174452623665e-02 6.98035256412315e-03 
4.58750000000000e+00 2.28120128119580e-02 6.93605302951991e-03 
4.61250000000000e+00 2.26085739438076e-02 6.89243571024632e-03 
4.63750000000000e+00 2.24070895226688e-02 6.84941144441258e-03 
4.66250000000000e+00 2.22075388928603e-02 6.80690854929268e-03 
4.68750000000000e+00 2.20098955862521e-02 6.76489593077730e-03 
4.71250000000000e+00 2.18141347945301e-02 6.72335131787712e-03 
4.73750000000000e+00 2.16202146172939e-02 6.68227123571535e-03 
4.76250000000000e+00 2.14281114708997e-02 6.64180730567604e-03 
4.78750000000000e+00 2.12377935176003e-02 6.60223213084154e-03 
4.81250000000000e+00 2.10492218229193e-02 6.56366672809490e-03 
4.83750000000000e+00 2.08623763304627e-02 6.52611051953797e-03 
4.86250000000000e+00 2.06772356413025e-02 6.48956530440220e-03 
4.88750000000000e+00 2.04937617550540e-02 6.45401590787292e-03 
4.91250000000000e+00 2.03119179845336e-02 6.41931409553835e-03 
4.93750000000000e+00 2.01316430940652e-02 6.38520374604018e-03 
4.96250000000000e+00 1.99529192129574e-02 6.35155300929783e-03 
4.98750000000000e+00 1.97757267062565e-02 6.31835149966682e-03 
5.01250000000000e+00 1.96000455960854e-02 6.28559140631889e-03 
5.03750000000000e+00 1.94256974437059e-02 6.25336889083615e-03 
5.06250000000000e+00 1.92526546757046e-02 6.22181063151962e-03 
5.08750000000000e+00 1.90808725443688e-02 6.19093244835282e-03 
5.11250000000000e+00 1.89103200440322e-02 6.16057706990613e-03 
5.13750000000000e+00 1.87409584901503e-02 6.13054754202795e-03 
5.16250000000000e+00 1.85727770176677e-02 6.10075852228121e-03 
5.18750000000000e+00 1.84057896711369e-02 6.07120720895124e-03 
5.21250000000000e+00 1.82399877039964e-02 6.04187997378967e-03 
5.23750000000000e+00 1.80753468009903e-02 6.01275241356175e-03 
5.26250000000000e+00 1.79118572467041e-02 5.98380797839660e-03 
5.28750000000000e+00 1.77495104567789e-02 5.95504192359768e-03 
5.31250000000000e+00 1.75882990694372e-02 5.92645065159495e-03 
5.33750000000000e+00 1.74281984126821e-02 5.89803341043028e-03 
5.36250000000000e+00 1.72691999358361e-02 5.86978693649241e-03 
5.38750000000000e+00 1.71112950487758e-02 5.84170847240865e-03 
5.41250000000000e+00 1.69544754633017e-02 5.81378977220014e-03 
5.43750000000000e+00 1.67987333096021e-02 5.78603227454006e-03 
5.46250000000000e+00 1.66440600630733e-02 5.75845729672560e-03 
5.48750000000000e+00 1.64904468765724e-02 5.73107747659292e-03 
5.51250000000000e+00 1.63378849793179e-02 5.70387761236351e-03 
5.53750000000000e+00 1.61863891450444e-02 5.67682530101659e-03 
5.56250000000000e+00 1.60359523176659e-02 5.64990616313112e-03 
5.58750000000000e+00 1.58865670149859e-02 5.62312032999984e-03 
5.61250000000000e+00 1.57382258454024e-02 5.59646830282476e-03 
5.63750000000000e+00 1.55909142643745e-02 5.56995721980043e-03 
5.66250000000000e+00 1.54446248938750e-02 5.54359920451034e-03 
5.68750000000000e+00 1.52993500733199e-02 5.51739967279048e-03 
5.71250000000000e+00 1.51550821553517e-02 5.49135763939101e-03 
5.73750000000000e+00 1.50118208300486e-02 5.46546477769435e-03 
5.76250000000000e+00 1.48695588615250e-02 5.43971073079212e-03 
5.78750000000000e+00 1.47282892781010e-02 5.41409550402719e-03 
5.81250000000000e+00 1.45880049997913e-02 5.38861598633983e-03 
5.83750000000000e+00 1.44486924113929e-02 5.36326779564346e-03 
5.86250000000000e+00 1.43103448547649e-02 5.33806457544555e-03 
5.88750000000000e+00 1.41729548499154e-02 5.31302272592950e-03 
5.91250000000000e+00 1.40365075512297e-02 5.28815041044297e-03 
5.93750000000000e+00 1.39009455429412e-02 5.26345961019740e-03 
5.96250000000000e+00 1.37662616201248e-02 5.23894891161712e-03 
5.98750000000000e+00 1.36324486199116e-02 5.21461611852126e-03 
6.01250000000000e+00 1.34994994570628e-02 5.19040197545791e-03 
6.03750000000000e+00 1.33672248344974e-02 5.16620533653502e-03 
6.06250000000000e+00 1.32355996972429e-02 5.14194324198260e-03 
6.08750000000000e+00 1.31046246788165e-02 5.11760553592181e-03 
6.11250000000000e+00 1.29743011261598e-02 5.09320282522521e-03 
6.13750000000000e+00 1.28446572621687e-02 5.06874809041853e-03 
6.16250000000000e+00 1.27156936685156e-02 5.04424946178354e-03 
6.18750000000000e+00 1.25874108574711e-02 5.01970859685905e-03 
6.21250000000000e+00 1.24598090694293e-02 4.99511783871903e-03 
6.23750000000000e+00 1.23328895340992e-02 4.97046590147829e-03 
6.26250000000000e+00 1.22066531263763e-02 4.94576074523790e-03 
6.28750000000000e+00 1.20811002408691e-02 4.92101417077595e-03 
6.31250000000000e+00 1.19562311365644e-02 4.89623332625593e-03 
6.33750000000000e+00 1.18320458280448e-02 4.87142128997918e-03 
6.36250000000000e+00 1.17085444604672e-02 4.84657187643983e-03 
6.38750000000000e+00 1.15857274038897e-02 4.82168309794020e-03 
6.41250000000000e+00 1.14635949069366e-02 4.79674190531315e-03 
6.43750000000000e+00 1.13421488176594e-02 4.77172337448381e-03 
6.46250000000000e+00 1.12213906391951e-02 4.74662573992161e-03 
6.48750000000000e+00 1.11013214640312e-02 4.72145936899570e-03 
6.51250000000000e+00 1.09819422973327e-02 4.69623670730339e-03 
6.53750000000000e+00 1.08632534639370e-02 4.67097389520053e-03 
6.56250000000000e+00 1.07452551399954e-02 4.64567706388900e-03 
6.58750000000000e+00 1.06279475789619e-02 4.62034821894969e-03 
6.61250000000000e+00 1.05113308650643e-02 4.59498535314058e-03 
6.63750000000000e+00 1.03954118468474e-02 4.56958154346470e-03 
6.66250000000000e+00 1.02801908597583e-02 4.54413999114236e-03 
6.68750000000000e+00 1.01656680056838e-02 4.51866757160061e-03 
6.71250000000000e+00 1.00518432942342e-02 4.49317449983851e-03 
6.73750000000000e+00 9.93871614430777e-03 4.46767673081202e-03 
6.76250000000000e+00 9.82628576131545e-03 4.44218532539877e-03 
6.78750000000000e+00 9.71455119268406e-03 4.41670511725213e-03 
6.81250000000000e+00 9.60351139942352e-03 4.39124316581191e-03 
6.83750000000000e+00 9.49316307823294e-03 4.36580390479654e-03 
6.86250000000000e+00 9.38350505584748e-03 4.34038223979985e-03 
6.88750000000000e+00 9.27453616946435e-03 4.31497621196599e-03 
6.91250000000000e+00 9.16625532081382e-03 4.28958713304394e-03 
6.93750000000000e+00 9.05863299808550e-03 4.26421725296872e-03 
6.96250000000000e+00 8.95166849756828e-03 4.23886324452703e-03 
6.98750000000000e+00 8.84536108996644e-03 4.21352770867009e-03 
7.01250000000000e+00 8.73970937559863e-03 4.18818742450203e-03 
7.03750000000000e+00 8.63468537236272e-03 4.16279891223269e-03 
7.06250000000000e+00 8.53029091707963e-03 4.13734118456757e-03 
7.08750000000000e+00 8.42652770072013e-03 4.11182143869953e-03 
7.11250000000000e+00 8.32339724744481e-03 4.08609569805659e-03 
7.13750000000000e+00 8.22081318683502e-03 4.05990461730645e-03 
7.16250000000000e+00 8.11879195323924e-03 4.03312925474838e-03 
7.18750000000000e+00 8.01734914512544e-03 4.00579740642092e-03 
7.21250000000000e+00 7.91649988073254e-03 3.97793487854435e-03 
7.23750000000000e+00 7.81625835131556e-03 3.94956622399496e-03 
7.26250000000000e+00 7.71663857454354e-03 3.92070721107739e-03 
7.28750000000000e+00 7.61765425484172e-03 3.89137433647461e-03 
7.31250000000000e+00 7.51931860946659e-03 3.86158351560003e-03 
7.33750000000000e+00 7.42164489424331e-03 3.83134592399051e-03 
7.36250000000000e+00 7.32464584359416e-03 3.80067764325793e-03 
7.38750000000000e+00 7.22833367887890e-03 3.76959898067880e-03 
7.41250000000000e+00 7.13272015281973e-03 3.73816301328236e-03 
7.43750000000000e+00 7.03782956547906e-03 3.70645025975654e-03 
7.46250000000000e+00 6.94366921966866e-03 3.67451190701052e-03 
7.48750000000000e+00 6.85024600983227e-03 3.64236418821830e-03 
7.51250000000000e+00 6.75756646963803e-03 3.61002153768627e-03 
7.53750000000000e+00 6.66563682647289e-03 3.57749749467899e-03 
7.56250000000000e+00 6.57446293974388e-03 3.54480510036740e-03 
7.58750000000000e+00 6.48405035906288e-03 3.51195777196760e-03 
7.61250000000000e+00 6.39440428941747e-03 3.47896946846160e-03 
7.63750000000000e+00 6.30552959749733e-03 3.44585364499073e-03 
7.66250000000000e+00 6.21743080247050e-03 3.41262255977847e-03 
7.68750000000000e+00 6.13011215073093e-03 3.37928837472904e-03 
7.71250000000000e+00 6.04357757231110e-03 3.34586385448474e-03 
7.73750000000000e+00 5.95784420877041e-03 3.31235390962867e-03 
7.76250000000000e+00 5.87291534459197e-03 3.27876484469554e-03 
