Energy(eV)           EEDF(eV^-(3/2))      Anisotropy(eV^-(3/2))
1.25000000000000e-02 3.32298201900989e-01 8.20698959987062e-03 
3.75000000000000e-02 3.32072753552152e-01 6.06924150446755e-03 
6.25000000000000e-02 3.31726740738292e-01 1.03346309578112e-02 
8.75000000000000e-02 3.31298800119656e-01 1.33677423380129e-02 
1.12500000000000e-01 3.30832762219598e-01 1.51811608466413e-02 
1.37500000000000e-01 3.30353953161169e-01 1.63842883856013e-02 
1.62500000000000e-01 3.29850665266013e-01 1.73302142235943e-02 
1.87500000000000e-01 3.29348417722543e-01 1.80118600827877e-02 
2.12500000000000e-01 3.28843285464093e-01 1.85480754093828e-02 
2.37500000000000e-01 3.28327447454897e-01 1.89757805741652e-02 
2.62500000000000e-01 3.27804732878841e-01 1.99853779915708e-02 
2.87500000000000e-01 3.27245872437008e-01 2.15055534867579e-02 
3.12500000000000e-01 3.26660874581360e-01 2.20739061844324e-02 
3.37500000000000e-01 3.26074830494333e-01 2.17832955724081e-02 
3.62500000000000e-01 3.25502926304861e-01 2.13834081676951e-02 
3.87500000000000e-01 3.24937596939248e-01 2.16081747322249e-02 
4.12500000000000e-01 3.24342947020366e-01 2.28030543852247e-02 
4.37500000000000e-01 3.23701514438533e-01 2.33245255723611e-02 
4.62500000000000e-01 3.23026876718499e-01 2.26966950112320e-02 
4.87500000000000e-01 3.22410003372709e-01 2.23453441561066e-02 
5.12500000000000e-01 3.21782482692779e-01 2.29141959906966e-02 
5.37500000000000e-01 3.21126431564612e-01 2.40019517550438e-02 
5.62500000000000e-01 3.20434786667227e-01 2.44938401254006e-02 
5.87500000000000e-01 3.19701147563703e-01 2.43341042608127e-02 
6.12500000000000e-01 3.19015776764565e-01 2.51310711612336e-02 
6.37500000000000e-01 3.18288395330537e-01 2.69853818437653e-02 
6.62500000000000e-01 3.17512721475744e-01 2.86638043901750e-02 
6.87500000000000e-01 3.16706843021358e-01 2.97487702338108e-02 
7.12500000000000e-01 3.15847715335823e-01 3.06035125643150e-02 
7.37500000000000e-01 3.15000432846914e-01 3.20327268279886e-02 
7.62500000000000e-01 3.14100120218202e-01 3.40192362658122e-02 
7.87500000000000e-01 3.13140016049206e-01 3.57225660920411e-02 
8.12500000000000e-01 3.12072116313232e-01 3.70112133837301e-02 
8.37500000000000e-01 3.11008555344905e-01 3.90395050630331e-02 
8.62500000000000e-01 3.09840830391259e-01 4.17528202409589e-02 
8.87500000000000e-01 3.08558428116119e-01 4.46231017473974e-02 
9.12500000000000e-01 3.07154148012988e-01 4.75346882470680e-02 
9.37500000000000e-01 3.05631462882983e-01 5.05199445333183e-02 
9.62500000000000e-01 3.04016512035475e-01 5.38080963476134e-02 
9.87500000000000e-01 3.02279067636652e-01 5.73382336532785e-02 
1.01250000000000e+00 3.00413222662833e-01 6.08664580418686e-02 
1.03750000000000e+00 2.98374959253608e-01 6.42910984304834e-02 
1.06250000000000e+00 2.96207498591353e-01 6.78639514372706e-02 
1.08750000000000e+00 2.93874165579069e-01 7.15007751089311e-02 
1.11250000000000e+00 2.91370828196229e-01 7.50926726040935e-02 
1.13750000000000e+00 2.88697419973935e-01 7.86216558154572e-02 
1.16250000000000e+00 2.85835524686636e-01 8.20974241412319e-02 
1.18750000000000e+00 2.82810681295049e-01 8.56297082821229e-02 
1.21250000000000e+00 2.79597475038418e-01 8.91686369780347e-02 
1.23750000000000e+00 2.76167357113813e-01 9.26060843092885e-02 
1.26250000000000e+00 2.72506788382434e-01 9.58792902494713e-02 
1.28750000000000e+00 2.68629330559887e-01 9.89484689888494e-02 
1.31250000000000e+00 2.64525430476118e-01 1.01706953105658e-01 
1.33750000000000e+00 2.60187392115057e-01 1.04029281377928e-01 
1.36250000000000e+00 2.55616464223904e-01 1.05838517455844e-01 
1.38750000000000e+00 2.50838565738403e-01 1.07110770920682e-01 
1.41250000000000e+00 2.45858974172591e-01 1.07818660745756e-01 
1.43750000000000e+00 2.40696900750450e-01 1.07957094749754e-01 
1.46250000000000e+00 2.35369703884532e-01 1.07576380378908e-01 
1.48750000000000e+00 2.29905424388408e-01 1.06762245781191e-01 
1.51250000000000e+00 2.24324453067828e-01 1.05608241491566e-01 
1.53750000000000e+00 2.18704342915115e-01 1.04197584209873e-01 
1.56250000000000e+00 2.13068113026575e-01 1.02626583143423e-01 
1.58750000000000e+00 2.07439385132709e-01 1.00963852858235e-01 
1.61250000000000e+00 2.01837347319457e-01 9.92398855435442e-02 
1.63750000000000e+00 1.96313409620147e-01 9.74578069584294e-02 
1.66250000000000e+00 1.90880532775797e-01 9.56221695265517e-02 
1.68750000000000e+00 1.85545676434800e-01 9.37120584094570e-02 
1.71250000000000e+00 1.80309310918335e-01 9.16967587366203e-02 
1.73750000000000e+00 1.75223920303759e-01 8.95422570539983e-02 
1.76250000000000e+00 1.70289541326074e-01 8.72418620122817e-02 
1.78750000000000e+00 1.65506762873282e-01 8.47926956781859e-02 
1.81250000000000e+00 1.60878810810527e-01 8.22133137722892e-02 
1.83750000000000e+00 1.56411136817481e-01 7.95552626850154e-02 
1.86250000000000e+00 1.52107511770426e-01 7.68951320109682e-02 
1.88750000000000e+00 1.47971459544508e-01 7.43119652160749e-02 
1.91250000000000e+00 1.44004514213826e-01 7.18620906018103e-02 
1.93750000000000e+00 1.40241118538900e-01 6.95468076851182e-02 
1.96250000000000e+00 1.36676849149998e-01 6.73657124714950e-02 
1.98750000000000e+00 1.33308723290765e-01 6.52964990188434e-02 
2.01250000000000e+00 1.30127944382620e-01 6.32992091845909e-02 
2.03750000000000e+00 1.27124578863429e-01 6.13425716644389e-02 
2.06250000000000e+00 1.24292237030505e-01 5.94240450609188e-02 
2.08750000000000e+00 1.21618479300141e-01 5.75506023777289e-02 
2.11250000000000e+00 1.19089666069801e-01 5.57165935415323e-02 
2.13750000000000e+00 1.16665004140428e-01 5.39395879837752e-02 
2.16250000000000e+00 1.14342072105468e-01 5.22198392279532e-02 
2.18750000000000e+00 1.12116037396309e-01 5.05548523881805e-02 
2.21250000000000e+00 1.09987769130679e-01 4.89406522999350e-02 
2.23750000000000e+00 1.07950848143656e-01 4.73888456088783e-02 
2.26250000000000e+00 1.06006951693314e-01 4.59070999450167e-02 
2.28750000000000e+00 1.04153282700810e-01 4.44984774147721e-02 
2.31250000000000e+00 1.02383113059984e-01 4.31649993913020e-02 
2.33750000000000e+00 1.00690760570181e-01 4.19048442790429e-02 
2.36250000000000e+00 9.90646635483002e-02 4.07094588641711e-02 
2.38750000000000e+00 9.74994666788771e-02 3.95649429505200e-02 
2.41250000000000e+00 9.59896936784305e-02 3.84662598510755e-02 
2.43750000000000e+00 9.45375598604519e-02 3.74091460649052e-02 
2.46250000000000e+00 9.31412643529621e-02 3.63976293910623e-02 
2.48750000000000e+00 9.18047668348802e-02 3.54382791290465e-02 
2.51250000000000e+00 9.05252417392453e-02 3.45370785551032e-02 
2.53750000000000e+00 8.92918184206725e-02 3.36958300297948e-02 
2.56250000000000e+00 8.80996944451080e-02 3.29087919793275e-02 
2.58750000000000e+00 8.69440192012417e-02 3.21659708499635e-02 
2.61250000000000e+00 8.58198377382987e-02 3.14542123797688e-02 
2.63750000000000e+00 8.47250593016057e-02 3.07637429364633e-02 
2.66250000000000e+00 8.36600157082422e-02 3.00911265675167e-02 
2.68750000000000e+00 8.26243142572188e-02 2.94394541451453e-02 
2.71250000000000e+00 8.16197177306306e-02 2.88155798710136e-02 
2.73750000000000e+00 8.06453718406764e-02 2.82283134625358e-02 
2.76250000000000e+00 7.97010238196986e-02 2.76802252113335e-02 
2.78750000000000e+00 7.87822667281517e-02 2.71679965896359e-02 
2.81250000000000e+00 7.78871202148716e-02 2.66830889751521e-02 
2.83750000000000e+00 7.70101805625548e-02 2.62189907616854e-02 
2.86250000000000e+00 7.61511562577151e-02 2.57689644264615e-02 
2.88750000000000e+00 7.53085477776177e-02 2.53314959550324e-02 
2.91250000000000e+00 7.44837085769512e-02 2.49091604907100e-02 
2.93750000000000e+00 7.36763316405378e-02 2.45070803979980e-02 
2.96250000000000e+00 7.28863818823185e-02 2.41281269924319e-02 
2.98750000000000e+00 7.21123675169702e-02 2.37724518267327e-02 
3.01250000000000e+00 7.13528546641899e-02 2.34367858155786e-02 
3.03750000000000e+00 7.06061274043482e-02 2.31163010609318e-02 
3.06250000000000e+00 6.98710813713188e-02 2.28063391670468e-02 
3.08750000000000e+00 6.91472301683260e-02 2.25038144723647e-02 
3.11250000000000e+00 6.84345460947188e-02 2.22075400054625e-02 
3.13750000000000e+00 6.77333107166678e-02 2.19192976778784e-02 
3.16250000000000e+00 6.70432621075083e-02 2.16427956744087e-02 
3.18750000000000e+00 6.63642741821204e-02 2.13795325096692e-02 
3.21250000000000e+00 6.56952607816729e-02 2.11284930239539e-02 
3.23750000000000e+00 6.50361702400978e-02 2.08871537375525e-02 
3.26250000000000e+00 6.43861409825053e-02 2.06521019244594e-02 
3.28750000000000e+00 6.37449822515377e-02 2.04200262707737e-02 
3.31250000000000e+00 6.31124321147564e-02 2.01899330378096e-02 
3.33750000000000e+00 6.24879560947686e-02 1.99622421197326e-02 
3.36250000000000e+00 6.18714536075777e-02 1.97373298120569e-02 
3.38750000000000e+00 6.12629666280774e-02 1.95154023904654e-02 
3.41250000000000e+00 6.06621469190969e-02 1.92965843469200e-02 
3.43750000000000e+00 6.00689333231606e-02 1.90806437375149e-02 
3.46250000000000e+00 5.94829557768118e-02 1.88668334173401e-02 
3.48750000000000e+00 5.89040971790953e-02 1.86542222196038e-02 
3.51250000000000e+00 5.83322535151288e-02 1.84426755041288e-02 
3.53750000000000e+00 5.77674692172288e-02 1.82324857104224e-02 
3.56250000000000e+00 5.72096883874840e-02 1.80244046132803e-02 
3.58750000000000e+00 5.66589377366196e-02 1.78203583982754e-02 
3.61250000000000e+00 5.61153137908166e-02 1.76228330431341e-02 
3.63750000000000e+00 5.55786302539672e-02 1.74321181957423e-02 
3.66250000000000e+00 5.50486996051814e-02 1.72461278513132e-02 
3.68750000000000e+00 5.45255333349146e-02 1.70634349203125e-02 
3.71250000000000e+00 5.40089668708239e-02 1.68841000101937e-02 
3.73750000000000e+00 5.34988962105395e-02 1.67084688507352e-02 
3.76250000000000e+00 5.29951423486841e-02 1.65362939224733e-02 
3.78750000000000e+00 5.24976092075740e-02 1.63668157612642e-02 
3.81250000000000e+00 5.20061208725883e-02 1.61997578154636e-02 
3.83750000000000e+00 5.15204196338359e-02 1.60351961503330e-02 
3.86250000000000e+00 5.10403564429281e-02 1.58729983730197e-02 
3.88750000000000e+00 5.05658431965576e-02 1.57129254367521e-02 
3.91250000000000e+00 5.00966938959849e-02 1.55552595174848e-02 
3.93750000000000e+00 4.96331294754455e-02 1.54005004510797e-02 
3.96250000000000e+00 4.91750293491282e-02 1.52489759615290e-02 
3.98750000000000e+00 4.87224132064683e-02 1.51008623110228e-02 
4.01250000000000e+00 4.82752692732583e-02 1.49562549641928e-02 
4.03750000000000e+00 4.78329709678428e-02 1.48152546639806e-02 
4.06250000000000e+00 4.73953752312449e-02 1.46777768630628e-02 
4.08750000000000e+00 4.69625897929793e-02 1.45436522610464e-02 
4.11250000000000e+00 4.65344967979220e-02 1.44127825789085e-02 
4.13750000000000e+00 4.61106985458671e-02 1.42850444410654e-02 
4.16250000000000e+00 4.56911000630034e-02 1.41601525718976e-02 
4.18750000000000e+00 4.52756074510323e-02 1.40379546646450e-02 
4.21250000000000e+00 4.48641086924548e-02 1.39185081069299e-02 
4.23750000000000e+00 4.44567565322587e-02 1.38018820664684e-02 
4.26250000000000e+00 4.40534270221998e-02 1.36881806107056e-02 
4.28750000000000e+00 4.36540103331777e-02 1.35774681276375e-02 
4.31250000000000e+00 4.32584021584147e-02 1.34697339102289e-02 
4.33750000000000e+00 4.28665332920935e-02 1.33649158685640e-02 
4.36250000000000e+00 4.24783073479126e-02 1.32629181098215e-02 
4.38750000000000e+00 4.20936283479102e-02 1.31635479624596e-02 
4.41250000000000e+00 4.17124072817926e-02 1.30665958591029e-02 
4.43750000000000e+00 4.13344952130273e-02 1.29718972893463e-02 
4.46250000000000e+00 4.09599349027838e-02 1.28793381746764e-02 
4.48750000000000e+00 4.05886506645854e-02 1.27888868207496e-02 
4.51250000000000e+00 4.02205698912936e-02 1.27002304836736e-02 
4.53750000000000e+00 3.98556536551801e-02 1.26129048441214e-02 
4.56250000000000e+00 3.94941947512398e-02 1.25267444573824e-02 
4.58750000000000e+00 3.91361404955336e-02 1.24418246766821e-02 
4.61250000000000e+00 3.87814392741983e-02 1.23580464059515e-02 
4.63750000000000e+00 3.84300266933297e-02 1.22752120931695e-02 
4.66250000000000e+00 3.80818795074630e-02 1.21931494932522e-02 
4.68750000000000e+00 3.77369614660956e-02 1.21117975196789e-02 
4.71250000000000e+00 3.73952380446390e-02 1.20311146443289e-02 
4.73750000000000e+00 3.70566274802926e-02 1.19510818339050e-02 
4.76250000000000e+00 3.67210981497189e-02 1.18720138288816e-02 
4.78750000000000e+00 3.63886007418032e-02 1.17944986148903e-02 
4.81250000000000e+00 3.60590707939067e-02 1.17188074809368e-02 
4.83750000000000e+00 3.57324952835114e-02 1.16449549696493e-02 
4.86250000000000e+00 3.54088463443167e-02 1.15729650851862e-02 
4.88750000000000e+00 3.50880587751484e-02 1.15028211773335e-02 
4.91250000000000e+00 3.47700692587655e-02 1.14342176839685e-02 
4.93750000000000e+00 3.44547699447992e-02 1.13666225417837e-02 
4.96250000000000e+00 3.41421357965223e-02 1.12997740914687e-02 
4.98750000000000e+00 3.38321374338144e-02 1.12336656049967e-02 
5.01250000000000e+00 3.35247438772947e-02 1.11683049836248e-02 
5.03750000000000e+00 3.32196423969054e-02 1.11039289769319e-02 
5.06250000000000e+00 3.29167835302512e-02 1.10408212087785e-02 
5.08750000000000e+00 3.26160805496544e-02 1.09790173545995e-02 
5.11250000000000e+00 3.23174758284545e-02 1.09181925972622e-02 
5.13750000000000e+00 3.20209484379200e-02 1.08579376403101e-02 
5.16250000000000e+00 3.17264819896173e-02 1.07980920904773e-02 
5.18750000000000e+00 3.14341142116525e-02 1.07386581878702e-02 
5.21250000000000e+00 3.11438330113871e-02 1.06795985740200e-02 
5.23750000000000e+00 3.08555739026902e-02 1.06208632032747e-02 
5.26250000000000e+00 3.05693228345218e-02 1.05624464469293e-02 
5.28750000000000e+00 3.02850668888266e-02 1.05043615866287e-02 
5.31250000000000e+00 3.00027952527880e-02 1.04465998109538e-02 
5.33750000000000e+00 2.97224222846620e-02 1.03891611288154e-02 
5.36250000000000e+00 2.94439350414319e-02 1.03320358244428e-02 
5.38750000000000e+00 2.91673205255244e-02 1.02752217734026e-02 
5.41250000000000e+00 2.88925663675516e-02 1.02186973770481e-02 
5.43750000000000e+00 2.86196618508375e-02 1.01624559817114e-02 
5.46250000000000e+00 2.83485944423799e-02 1.01065432578803e-02 
5.48750000000000e+00 2.80793503014071e-02 1.00509899166242e-02 
5.51250000000000e+00 2.78119157021940e-02 9.99576474075950e-03 
5.53750000000000e+00 2.75463817186293e-02 9.94078451583109e-03 
5.56250000000000e+00 2.72827381540053e-02 9.88601012808827e-03 
5.58750000000000e+00 2.70209742612112e-02 9.83143840115245e-03 
5.61250000000000e+00 2.67610792214874e-02 9.77707434427296e-03 
5.63750000000000e+00 2.65030089190948e-02 9.72295184451098e-03 
5.66250000000000e+00 2.62467516640054e-02 9.66912293615528e-03 
5.68750000000000e+00 2.59922943412846e-02 9.61561258379650e-03 
5.71250000000000e+00 2.57396238983593e-02 9.56242069101865e-03 
5.73750000000000e+00 2.54887602620462e-02 9.50950775017506e-03 
5.76250000000000e+00 2.52396920503555e-02 9.45681036808006e-03 
5.78750000000000e+00 2.49924094835429e-02 9.40430782631412e-03 
5.81250000000000e+00 2.47469023965521e-02 9.35198474854700e-03 
5.83750000000000e+00 2.45031310201501e-02 9.29982990075716e-03 
5.86250000000000e+00 2.42610866698373e-02 9.24789170761187e-03 
5.88750000000000e+00 2.40207579668550e-02 9.19622134151703e-03 
5.91250000000000e+00 2.37821176067822e-02 9.14484568908445e-03 
5.93750000000000e+00 2.35449318694903e-02 9.09382585707472e-03 
5.96250000000000e+00 2.33091899483883e-02 9.04315724978156e-03 
5.98750000000000e+00 2.30748811588308e-02 8.99283499636768e-03 
6.01250000000000e+00 2.28419949049949e-02 8.94273746529256e-03 
6.03750000000000e+00 2.26102402857570e-02 8.89266894550122e-03 
6.06250000000000e+00 2.23795721473347e-02 8.84249430626309e-03 
6.08750000000000e+00 2.21499940156031e-02 8.79220641787772e-03 
6.11250000000000e+00 2.19215109165449e-02 8.74183691320182e-03 
6.13750000000000e+00 2.16942583842252e-02 8.69141933595636e-03 
6.16250000000000e+00 2.14682380882681e-02 8.64098702421760e-03 
6.18750000000000e+00 2.12434515155487e-02 8.59054425524376e-03 
6.21250000000000e+00 2.10198995361323e-02 8.54006592860596e-03 
6.23750000000000e+00 2.07975864970674e-02 8.48950971342019e-03 
6.26250000000000e+00 2.05765155339681e-02 8.43888012071008e-03 
6.28750000000000e+00 2.03566888944036e-02 8.38819947621560e-03 
6.31250000000000e+00 2.01381085306717e-02 8.33748663406602e-03 
6.33750000000000e+00 1.99207755751528e-02 8.28674338487643e-03 
6.36250000000000e+00 1.97046919820110e-02 8.23593600958708e-03 
6.38750000000000e+00 1.94898608070806e-02 8.18504851953125e-03 
6.41250000000000e+00 1.92762848314319e-02 8.13401377505968e-03 
6.43750000000000e+00 1.90639744974623e-02 8.08271410771463e-03 
6.46250000000000e+00 1.88529387503393e-02 8.03113526860947e-03 
6.48750000000000e+00 1.86431848875733e-02 7.97931510866864e-03 
6.51250000000000e+00 1.84347198658482e-02 7.92729798736342e-03 
6.53750000000000e+00 1.82275476131507e-02 7.87514366456849e-03 
6.56250000000000e+00 1.80216719627700e-02 7.82286963872476e-03 
6.58750000000000e+00 1.78170971483808e-02 7.77047649814522e-03 
6.61250000000000e+00 1.76138270056721e-02 7.71794995222134e-03 
6.63750000000000e+00 1.74118841323581e-02 7.66525532851120e-03 
6.66250000000000e+00 1.72112738321313e-02 7.61239584428375e-03 
6.68750000000000e+00 1.70120007124973e-02 7.55939138506356e-03 
6.71250000000000e+00 1.68140690634411e-02 7.50627745016004e-03 
6.73750000000000e+00 1.66174806679277e-02 7.45311395133889e-03 
6.76250000000000e+00 1.64222366866165e-02 7.39994078616544e-03 
6.78750000000000e+00 1.62283377944090e-02 7.34677181341311e-03 
6.81250000000000e+00 1.60357844220693e-02 7.29363812615276e-03 
6.83750000000000e+00 1.58445727514542e-02 7.24056801866082e-03 
6.86250000000000e+00 1.56547020518586e-02 7.18754405112547e-03 
6.88750000000000e+00 1.54661720068068e-02 7.13455223327070e-03 
6.91250000000000e+00 1.52789823840578e-02 7.08158806835685e-03 
6.93750000000000e+00 1.50930119684043e-02 7.02865528465408e-03 
6.96250000000000e+00 1.49082630600972e-02 6.97573167000610e-03 
6.98750000000000e+00 1.47247379819796e-02 6.92282224137904e-03 
7.01250000000000e+00 1.45424376068973e-02 6.86989898841614e-03 
7.03750000000000e+00 1.43613984802965e-02 6.81689066052406e-03 
7.06250000000000e+00 1.41816254016370e-02 6.76377824739737e-03 
7.08750000000000e+00 1.40031229888962e-02 6.71057752070684e-03 
7.11250000000000e+00 1.38258954907146e-02 6.65716067663747e-03 
7.13750000000000e+00 1.36498655913428e-02 6.60331366919893e-03 
7.16250000000000e+00 1.34750511158194e-02 6.54896764116965e-03 
7.18750000000000e+00 1.33014678980464e-02 6.49417293894685e-03 
7.21250000000000e+00 1.31291311715905e-02 6.43897360067054e-03 
7.23750000000000e+00 1.29580536228268e-02 6.38340960044606e-03 
7.26250000000000e+00 1.27882487223029e-02 6.32748258221044e-03 
7.28750000000000e+00 1.26197301130025e-02 6.27119783522659e-03 
7.31250000000000e+00 1.24525108061991e-02 6.21455981166293e-03 
7.33750000000000e+00 1.22866055185042e-02 6.15755393751913e-03 
7.36250000000000e+00 1.21220281165436e-02 6.10018771716598e-03 
7.38750000000000e+00 1.19587917396212e-02 6.04248739572433e-03 
7.41250000000000e+00 1.17969088857138e-02 5.98454285636504e-03 
7.43750000000000e+00 1.16363995189826e-02 5.92650467140584e-03 
7.46250000000000e+00 1.14772675978735e-02 5.86846366868367e-03 
7.48750000000000e+00 1.13195164911211e-02 5.81044067701008e-03 
7.51250000000000e+00 1.11631491548972e-02 5.75245000432365e-03 
7.53750000000000e+00 1.10081683013505e-02 5.69450310340826e-03 
7.56250000000000e+00 1.08545762534339e-02 5.63661017326426e-03 
7.58750000000000e+00 1.07023750484573e-02 5.57878373742818e-03 
7.61250000000000e+00 1.05515663281650e-02 5.52103868374465e-03 
7.63750000000000e+00 1.04021513100436e-02 5.46338858135601e-03 
7.66250000000000e+00 1.02541307839145e-02 5.40584414416286e-03 
7.68750000000000e+00 1.01075053750081e-02 5.34841663070719e-03 
7.71250000000000e+00 9.96227534457004e-03 5.29112037293994e-03 
7.73750000000000e+00 9.81849544172558e-03 5.23394723185291e-03 
7.76250000000000e+00 9.67616457191081e-03 5.17690354183790e-03 
