Energy(eV)           EEDF(eV^-(3/2))      Anisotropy(eV^-(3/2))
1.04166666666667e-02 7.90102340746529e-01 9.53643577480368e-03 
3.12500000000000e-02 7.89534928426920e-01 1.26753599118222e-02 
5.20833333333333e-02 7.87514467236815e-01 3.35072343249375e-02 
7.29166666666667e-02 7.84296117336223e-01 5.22823088738450e-02 
9.37500000000000e-02 7.80507741172358e-01 6.47123880775548e-02 
1.14583333333333e-01 7.76513178359762e-01 7.21569456402206e-02 
1.35416666666667e-01 7.72494840693305e-01 7.68270001230151e-02 
1.56250000000000e-01 7.68390111341149e-01 8.02923094062013e-02 
1.77083333333333e-01 7.64386808091294e-01 8.25562726986728e-02 
1.97916666666667e-01 7.60491742648241e-01 8.39090128912435e-02 
2.18750000000000e-01 7.56671750574453e-01 8.49413646453426e-02 
2.39583333333333e-01 7.52878573951846e-01 8.57990554734573e-02 
2.60416666666667e-01 7.49118868247425e-01 8.70834713361345e-02 
2.81250000000000e-01 7.45404695952985e-01 8.87018699324696e-02 
3.02083333333333e-01 7.41755820949300e-01 8.90344651416608e-02 
3.22916666666667e-01 7.38197092779713e-01 8.73173093900116e-02 
3.43750000000000e-01 7.34751228020518e-01 8.43711456724077e-02 
3.64583333333333e-01 7.31479369566165e-01 8.15468232204921e-02 
3.85416666666667e-01 7.28300873494007e-01 7.96522322631160e-02 
4.06250000000000e-01 7.25178528744904e-01 7.81278677260653e-02 
4.27083333333333e-01 7.22114294362408e-01 7.64415153579763e-02 
4.47916666666667e-01 7.19112708056867e-01 7.44445414774631e-02 
4.68750000000000e-01 7.16148205797598e-01 7.22812147190212e-02 
4.89583333333333e-01 7.13305436379992e-01 7.12761376824332e-02 
5.10416666666667e-01 7.10446966862528e-01 7.16059184997934e-02 
5.31250000000000e-01 7.07572908060518e-01 7.17863183531933e-02 
5.52083333333333e-01 7.04707708819136e-01 7.15036678945100e-02 
5.72916666666667e-01 7.01834325795760e-01 7.08089649008100e-02 
5.93750000000000e-01 6.98993904477622e-01 7.02791894506374e-02 
6.14583333333333e-01 6.96196400685301e-01 7.07930080002568e-02 
6.35416666666667e-01 6.93368660528965e-01 7.19686921872166e-02 
6.56250000000000e-01 6.90505782638117e-01 7.32491279459196e-02 
6.77083333333333e-01 6.87605068936685e-01 7.41209404794126e-02 
6.97916666666667e-01 6.84614980612371e-01 7.45796393049274e-02 
7.18750000000000e-01 6.81688026373786e-01 7.60539799138418e-02 
7.39583333333333e-01 6.78668813116726e-01 7.87047737041226e-02 
7.60416666666667e-01 6.75529779209921e-01 8.16377181358168e-02 
7.81250000000000e-01 6.72265204589030e-01 8.47329133313713e-02 
8.02083333333333e-01 6.68850310042606e-01 8.78333626625230e-02 
8.22916666666667e-01 6.65268145453904e-01 9.11479735041773e-02 
8.43750000000000e-01 6.61540373619677e-01 9.52801920062298e-02 
8.64583333333333e-01 6.57586086193761e-01 1.00100385057382e-01 
8.85416666666667e-01 6.53383000648476e-01 1.05303245695830e-01 
9.06250000000000e-01 6.48913337580207e-01 1.10608013348445e-01 
9.27083333333333e-01 6.44138140384356e-01 1.16014849648767e-01 
9.47916666666667e-01 6.39163641888540e-01 1.22186002051233e-01 
9.68750000000000e-01 6.33884634546688e-01 1.29026593006116e-01 
9.89583333333333e-01 6.28281601700553e-01 1.36199071937024e-01 
1.01041666666667e+00 6.22339046222278e-01 1.43641288864451e-01 
1.03125000000000e+00 6.15948159430752e-01 1.51154210743210e-01 
1.05208333333333e+00 6.09084014537899e-01 1.58721284094109e-01 
1.07291666666667e+00 6.01776402564245e-01 1.66497860854957e-01 
1.09375000000000e+00 5.93969654608841e-01 1.74343008851848e-01 
1.11458333333333e+00 5.85653046797947e-01 1.82113184444662e-01 
1.13541666666667e+00 5.76826461138702e-01 1.89711870773004e-01 
1.15625000000000e+00 5.67454784581751e-01 1.97076096668206e-01 
1.17708333333333e+00 5.57593523902239e-01 2.04319057194540e-01 
1.19791666666667e+00 5.47196936598353e-01 2.11321711723558e-01 
1.21875000000000e+00 5.36218342427550e-01 2.17907150785557e-01 
1.23958333333333e+00 5.24590598315078e-01 2.23919710224766e-01 
1.26041666666667e+00 5.12304410854944e-01 2.29210479131419e-01 
1.28125000000000e+00 4.99399298975903e-01 2.33653938124706e-01 
1.30208333333333e+00 4.85889270635118e-01 2.37093564043260e-01 
1.32291666666667e+00 4.71770312239563e-01 2.39366815546281e-01 
1.34375000000000e+00 4.57069096180762e-01 2.40340031445113e-01 
1.36458333333333e+00 4.41836659363301e-01 2.39951692555045e-01 
1.38541666666667e+00 4.26157808955065e-01 2.38204776806811e-01 
1.40625000000000e+00 4.10094460347629e-01 2.35123939990288e-01 
1.42708333333333e+00 3.93737145733945e-01 2.30774984352530e-01 
1.44791666666667e+00 3.77167933627919e-01 2.25272515056004e-01 
1.46875000000000e+00 3.60486769481252e-01 2.18781460908447e-01 
1.48958333333333e+00 3.43787727841717e-01 2.11506602705973e-01 
1.51041666666667e+00 3.27161753884560e-01 2.03676618975835e-01 
1.53125000000000e+00 3.10857519201775e-01 1.95471529876887e-01 
1.55208333333333e+00 2.94940050998156e-01 1.87117564817685e-01 
1.57291666666667e+00 2.79465162611683e-01 1.78786602302315e-01 
1.59375000000000e+00 2.64481522746899e-01 1.70628425366431e-01 
1.61458333333333e+00 2.50038514721871e-01 1.62736789040290e-01 
1.63541666666667e+00 2.36212592249464e-01 1.55133586748643e-01 
1.65625000000000e+00 2.23004523669497e-01 1.47838705626852e-01 
1.67708333333333e+00 2.10392118495376e-01 1.40829925048456e-01 
1.69791666666667e+00 1.98357757529079e-01 1.34071647425937e-01 
1.71875000000000e+00 1.86921353619639e-01 1.27513018033274e-01 
1.73958333333333e+00 1.76106379769013e-01 1.21093509150811e-01 
1.76041666666667e+00 1.65893540734102e-01 1.14790070357343e-01 
1.78125000000000e+00 1.56255693116442e-01 1.08594349818842e-01 
1.80208333333333e+00 1.47173015707329e-01 1.02514611539523e-01 
1.82291666666667e+00 1.38629142406478e-01 9.65930490788656e-02 
1.84375000000000e+00 1.30607379194335e-01 9.08861090056002e-02 
1.86458333333333e+00 1.23092142717852e-01 8.54523754148232e-02 
1.88541666666667e+00 1.16061952889073e-01 8.03471082433866e-02 
1.90625000000000e+00 1.09494668866716e-01 7.56085824530204e-02 
1.92708333333333e+00 1.03412126493785e-01 7.12332288649128e-02 
1.94791666666667e+00 9.78005854561626e-02 6.72111946008191e-02 
1.96875000000000e+00 9.26205675262507e-02 6.35075041152263e-02 
1.98958333333333e+00 8.78416745081906e-02 6.00803590334861e-02 
2.01041666666667e+00 8.34369713167479e-02 5.68876894750758e-02 
2.03125000000000e+00 7.93708428926585e-02 5.38977348401255e-02 
2.05208333333333e+00 7.56252512423071e-02 5.10801250262933e-02 
2.07291666666667e+00 7.21619360198326e-02 4.84190662655307e-02 
2.09375000000000e+00 6.89611700508341e-02 4.59005162645805e-02 
2.11458333333333e+00 6.59910330662655e-02 4.35150074499536e-02 
2.13541666666667e+00 6.32007309650064e-02 4.12624861217767e-02 
2.15625000000000e+00 6.05825954148447e-02 3.91262130219848e-02 
2.17708333333333e+00 5.81217815577553e-02 3.71018352207347e-02 
2.19791666666667e+00 5.58168624333051e-02 3.51847911674422e-02 
2.21875000000000e+00 5.36572674956115e-02 3.33784697392871e-02 
2.23958333333333e+00 5.16340356072333e-02 3.16823508271958e-02 
2.26041666666667e+00 4.97425243761453e-02 3.00953416563145e-02 
2.28125000000000e+00 4.79735657697483e-02 2.86189546135499e-02 
2.30208333333333e+00 4.63204383941213e-02 2.72483895440067e-02 
2.32291666666667e+00 4.47688013371454e-02 2.59746983082722e-02 
2.34375000000000e+00 4.33091659191880e-02 2.47821181760962e-02 
2.36458333333333e+00 4.19299004437590e-02 2.36614528537219e-02 
2.38541666666667e+00 4.06252577610743e-02 2.26025677369821e-02 
2.40625000000000e+00 3.93886649664907e-02 2.15996085398440e-02 
2.42708333333333e+00 3.82182368981871e-02 2.06472775333103e-02 
2.44791666666667e+00 3.71113559736993e-02 1.97441406047378e-02 
2.46875000000000e+00 3.60669603303157e-02 1.88921464648488e-02 
2.48958333333333e+00 3.50837316715659e-02 1.80951075189410e-02 
2.51041666666667e+00 3.41582208866411e-02 1.73529358481364e-02 
2.53125000000000e+00 3.32811958112129e-02 1.66636362346699e-02 
2.55208333333333e+00 3.24473401622941e-02 1.60217702497411e-02 
2.57291666666667e+00 3.16532739883280e-02 1.54216970476914e-02 
2.59375000000000e+00 3.08935509665935e-02 1.48570438706761e-02 
2.61458333333333e+00 3.01658590347768e-02 1.43189953414411e-02 
2.63541666666667e+00 2.94668506126232e-02 1.38022177879788e-02 
2.65625000000000e+00 2.87964853449501e-02 1.33039265440778e-02 
2.67708333333333e+00 2.81539574867274e-02 1.28251547631358e-02 
2.69791666666667e+00 2.75390830215131e-02 1.23690751964393e-02 
2.71875000000000e+00 2.69520841266668e-02 1.19381095865562e-02 
2.73958333333333e+00 2.63904227189519e-02 1.15345403912715e-02 
2.76041666666667e+00 2.58540224611648e-02 1.11580271821354e-02 
2.78125000000000e+00 2.53392024257593e-02 1.08071878601580e-02 
2.80208333333333e+00 2.48448093296607e-02 1.04771653510030e-02 
2.82291666666667e+00 2.43672862685275e-02 1.01637154400227e-02 
2.84375000000000e+00 2.39050708878170e-02 9.86279207311064e-03 
2.86458333333333e+00 2.34577875714869e-02 9.57238102495089e-03 
2.88541666666667e+00 2.30245375955461e-02 9.29238966783742e-03 
2.90625000000000e+00 2.26057674228247e-02 9.02361460550134e-03 
2.92708333333333e+00 2.22007077003948e-02 8.76779850131827e-03 
2.94791666666667e+00 2.18093675058112e-02 8.52604565627077e-03 
2.96875000000000e+00 2.14307079056775e-02 8.29902156517798e-03 
2.98958333333333e+00 2.10639881421407e-02 8.08593457162775e-03 
3.01041666666667e+00 2.07079346625138e-02 7.88488238984980e-03 
3.03125000000000e+00 2.03616025547834e-02 7.69337179126091e-03 
3.05208333333333e+00 2.00244590409431e-02 7.50939598822563e-03 
3.07291666666667e+00 1.96958242606784e-02 7.33163970749324e-03 
3.09375000000000e+00 1.93756376616986e-02 7.15922432218322e-03 
3.11458333333333e+00 1.90636044809100e-02 6.99183928415848e-03 
3.13541666666667e+00 1.87598049262391e-02 6.83027004595701e-03 
3.15625000000000e+00 1.84639333280193e-02 6.67592646950758e-03 
3.17708333333333e+00 1.81756962743202e-02 6.52922006526110e-03 
3.19791666666667e+00 1.78946484461306e-02 6.38979255233336e-03 
3.21875000000000e+00 1.76202355836005e-02 6.25691160028042e-03 
3.23958333333333e+00 1.73521659775816e-02 6.12922300075932e-03 
3.26041666666667e+00 1.70899671407148e-02 6.00509764275037e-03 
3.28125000000000e+00 1.68335466209396e-02 5.88352376559781e-03 
3.30208333333333e+00 1.65826903488581e-02 5.76423348856738e-03 
3.32291666666667e+00 1.63373204441194e-02 5.64724258619427e-03 
3.34375000000000e+00 1.60973734403066e-02 5.53269305590076e-03 
3.36458333333333e+00 1.58627211273440e-02 5.42064274021093e-03 
3.38541666666667e+00 1.56332960679594e-02 5.31104262121337e-03 
3.40625000000000e+00 1.54088822618565e-02 5.20380845927832e-03 
3.42708333333333e+00 1.51893328965236e-02 5.09891053152910e-03 
3.44791666666667e+00 1.49744352008271e-02 4.99612407863473e-03 
3.46875000000000e+00 1.47640474486674e-02 4.89505807166929e-03 
3.48958333333333e+00 1.45580933944484e-02 4.79549131906704e-03 
3.51041666666667e+00 1.43564789477539e-02 4.69737168749584e-03 
3.53125000000000e+00 1.41591816191751e-02 4.60075968543045e-03 
3.55208333333333e+00 1.39661345782316e-02 4.50569613586678e-03 
3.57291666666667e+00 1.37772622879829e-02 4.41259504707445e-03 
3.59375000000000e+00 1.35925719868897e-02 4.32247664309447e-03 
3.61458333333333e+00 1.34119928059819e-02 4.23619497918138e-03 
3.63541666666667e+00 1.32353522580852e-02 4.15354302547438e-03 
3.65625000000000e+00 1.30625115184497e-02 4.07357342396693e-03 
3.67708333333333e+00 1.28934322620509e-02 3.99569415589750e-03 
3.69791666666667e+00 1.27279979173477e-02 3.91982230737888e-03 
3.71875000000000e+00 1.25661219344869e-02 3.84602900585011e-03 
3.73958333333333e+00 1.24076909317263e-02 3.77432314765109e-03 
3.76041666666667e+00 1.22525984647541e-02 3.70444403463115e-03 
3.78125000000000e+00 1.21007702819698e-02 3.63615781778078e-03 
3.80208333333333e+00 1.19521079674280e-02 3.56940362652552e-03 
3.82291666666667e+00 1.18065210877400e-02 3.50416353033735e-03 
3.84375000000000e+00 1.16639238097311e-02 3.44036674164219e-03 
3.86458333333333e+00 1.15242343118630e-02 3.37790436444566e-03 
3.88541666666667e+00 1.13873905238292e-02 3.31668959883777e-03 
3.90625000000000e+00 1.12532919881578e-02 3.25678836835335e-03 
3.92708333333333e+00 1.11219105770465e-02 3.19841741052952e-03 
3.94791666666667e+00 1.09931755136360e-02 3.14174893212804e-03 
3.96875000000000e+00 1.08670038276753e-02 3.08680128392770e-03 
3.98958333333333e+00 1.07433924845887e-02 3.03350259451952e-03 
4.01041666666667e+00 1.06222742563227e-02 2.98181857062111e-03 
4.03125000000000e+00 1.05033983310735e-02 2.93180408990461e-03 
4.05208333333333e+00 1.03866822924972e-02 2.88340358792986e-03 
4.07291666666667e+00 1.02721009363585e-02 2.83654011311417e-03 
4.09375000000000e+00 1.01596173399650e-02 2.79118122723607e-03 
4.11458333333333e+00 1.00491535299299e-02 2.74729679485952e-03 
4.13541666666667e+00 9.94061545324335e-03 2.70480989440693e-03 
4.15625000000000e+00 9.83394445269072e-03 2.66361747400797e-03 
4.17708333333333e+00 9.72908333859140e-03 2.62365198400841e-03 
4.19791666666667e+00 9.62597507419574e-03 2.58490127737722e-03 
4.21875000000000e+00 9.52457596004734e-03 2.54738040019779e-03 
4.23958333333333e+00 9.42484812528925e-03 2.51108965940043e-03 
4.26041666666667e+00 9.32672769664826e-03 2.47603371314843e-03 
4.28125000000000e+00 9.23015819761703e-03 2.44222707263280e-03 
4.30208333333333e+00 9.13508349005225e-03 2.40965970106864e-03 
4.32291666666667e+00 9.04144986297786e-03 2.37829723725389e-03 
4.34375000000000e+00 8.94920554365934e-03 2.34808697853205e-03 
4.36458333333333e+00 8.85830165369868e-03 2.31895264576460e-03 
4.38541666666667e+00 8.76869194266647e-03 2.29083893716100e-03 
4.40625000000000e+00 8.68033134859789e-03 2.26370342848229e-03 
4.42708333333333e+00 8.59317346273714e-03 2.23749583450404e-03 
4.44791666666667e+00 8.50721106141420e-03 2.21216908108119e-03 
4.46875000000000e+00 8.42241319469486e-03 2.18769766336401e-03 
4.48958333333333e+00 8.33874195342076e-03 2.16405995269888e-03 
4.51041666666667e+00 8.25616066232370e-03 2.14114044925487e-03 
4.53125000000000e+00 8.17462043209080e-03 2.11874962660838e-03 
4.55208333333333e+00 8.09421760873958e-03 2.09679288083895e-03 
4.57291666666667e+00 8.01492776467218e-03 2.07530707867570e-03 
4.59375000000000e+00 7.93672601554193e-03 2.05428962907282e-03 
4.61458333333333e+00 7.85958708036158e-03 2.03370145945234e-03 
4.63541666666667e+00 7.78348588279719e-03 2.01348964738520e-03 
4.65625000000000e+00 7.70840714290514e-03 1.99361848622039e-03 
4.67708333333333e+00 7.63433242277364e-03 1.97407406733102e-03 
4.69791666666667e+00 7.56124395335046e-03 1.95484579485309e-03 
4.71875000000000e+00 7.48912405437564e-03 1.93592356021297e-03 
4.73958333333333e+00 7.41795532236353e-03 1.91739090904685e-03 
4.76041666666667e+00 7.34771474168882e-03 1.89943881521658e-03 
4.78125000000000e+00 7.27837201841546e-03 1.88217881373763e-03 
4.80208333333333e+00 7.20989628602702e-03 1.86561217602699e-03 
4.82291666666667e+00 7.14225836408104e-03 1.84973645350405e-03 
4.84375000000000e+00 7.07543285836157e-03 1.83455971918671e-03 
4.86458333333333e+00 7.00939582148656e-03 1.82007651761864e-03 
4.88541666666667e+00 6.94411804591723e-03 1.80627075315269e-03 
4.90625000000000e+00 6.87957132678688e-03 1.79305556604478e-03 
4.92708333333333e+00 6.81571002652496e-03 1.78026376978330e-03 
4.94791666666667e+00 6.75251375027833e-03 1.76778259382619e-03 
4.96875000000000e+00 6.68997062656162e-03 1.75558790462941e-03 
4.98958333333333e+00 6.62806742252626e-03 1.74367292482929e-03 
5.01041666666667e+00 6.56679107662147e-03 1.73203271319848e-03 
5.03125000000000e+00 6.50608679913085e-03 1.72068362052489e-03 
5.05208333333333e+00 6.44594050749906e-03 1.70969648129747e-03 
5.07291666666667e+00 6.38632779774039e-03 1.69914680667247e-03 
5.09375000000000e+00 6.32721996805866e-03 1.68900209129073e-03 
5.11458333333333e+00 6.26859971277976e-03 1.67915073128117e-03 
5.13541666666667e+00 6.21044555224138e-03 1.66948097918115e-03 
5.15625000000000e+00 6.15275124341849e-03 1.65994315154236e-03 
5.17708333333333e+00 6.09552163450096e-03 1.65053468540104e-03 
5.19791666666667e+00 6.03875543749128e-03 1.64124924827748e-03 
5.21875000000000e+00 5.98244431673860e-03 1.63207237137377e-03 
5.23958333333333e+00 5.92657950691765e-03 1.62298949418736e-03 
5.26041666666667e+00 5.87115630139100e-03 1.61399392696245e-03 
5.28125000000000e+00 5.81617035273943e-03 1.60508350704877e-03 
5.30208333333333e+00 5.76161829425939e-03 1.59625653122022e-03 
5.32291666666667e+00 5.70749257485815e-03 1.58751170619124e-03 
5.34375000000000e+00 5.65378678439770e-03 1.57884723286809e-03 
5.36458333333333e+00 5.60049672518183e-03 1.57026145997487e-03 
5.38541666666667e+00 5.54761827853342e-03 1.56175291122497e-03 
5.40625000000000e+00 5.49514748328318e-03 1.55331845420651e-03 
5.42708333333333e+00 5.44308056071211e-03 1.54495426685423e-03 
5.44791666666667e+00 5.39141362913383e-03 1.53666695220485e-03 
5.46875000000000e+00 5.34014245217081e-03 1.52847175257570e-03 
5.48958333333333e+00 5.28926229069232e-03 1.52037504009853e-03 
5.51041666666667e+00 5.23876855220882e-03 1.51236624664656e-03 
5.53125000000000e+00 5.18866458098662e-03 1.50442499727313e-03 
5.55208333333333e+00 5.13894725879111e-03 1.49654228519799e-03 
5.57291666666667e+00 5.08961319717147e-03 1.48871987742624e-03 
5.59375000000000e+00 5.04065897494357e-03 1.48095865258564e-03 
5.61458333333333e+00 4.99208068155672e-03 1.47325872823074e-03 
5.63541666666667e+00 4.94387300462490e-03 1.46562278175652e-03 
5.65625000000000e+00 4.89603248499343e-03 1.45805383369819e-03 
5.67708333333333e+00 4.84855559795258e-03 1.45055232511676e-03 
5.69791666666667e+00 4.80143885400265e-03 1.44311716832309e-03 
5.71875000000000e+00 4.75467977578910e-03 1.43574456063993e-03 
5.73958333333333e+00 4.70827658651725e-03 1.42842948440825e-03 
5.76041666666667e+00 4.66222615573286e-03 1.42117399059978e-03 
5.78125000000000e+00 4.61652519138885e-03 1.41398374598759e-03 
5.80208333333333e+00 4.57117029382532e-03 1.40685883306384e-03 
5.82291666666667e+00 4.52615681208013e-03 1.39979776926936e-03 
5.84375000000000e+00 4.48148059044595e-03 1.39280593918050e-03 
5.86458333333333e+00 4.43713808124542e-03 1.38589076318202e-03 
5.88541666666667e+00 4.39312554348618e-03 1.37905363144704e-03 
5.90625000000000e+00 4.34943531800635e-03 1.37229462707788e-03 
5.92708333333333e+00 4.30605106075381e-03 1.36561605138852e-03 
5.94791666666667e+00 4.26296610856935e-03 1.35901748704579e-03 
5.96875000000000e+00 4.22017702638058e-03 1.35249755870542e-03 
5.98958333333333e+00 4.17768046159858e-03 1.34605488844452e-03 
6.01041666666667e+00 4.13547311074383e-03 1.33966677525431e-03 
6.03125000000000e+00 4.09348336309778e-03 1.33329306943671e-03 
6.05208333333333e+00 4.05169657606115e-03 1.32690266966529e-03 
6.07291666666667e+00 4.01011271290121e-03 1.32049030278067e-03 
6.09375000000000e+00 3.96873238113847e-03 1.31405611153659e-03 
6.11458333333333e+00 3.92755825315881e-03 1.30760352237368e-03 
6.13541666666667e+00 3.88659908671241e-03 1.30113649563462e-03 
6.15625000000000e+00 3.84585519871915e-03 1.29465729958906e-03 
6.17708333333333e+00 3.80532693648503e-03 1.28816631388928e-03 
6.19791666666667e+00 3.76501449106045e-03 1.28166333565617e-03 
6.21875000000000e+00 3.72491811592460e-03 1.27514561193284e-03 
6.23958333333333e+00 3.68503820768742e-03 1.26861124958213e-03 
6.26041666666667e+00 3.64537513828244e-03 1.26206195516646e-03 
6.28125000000000e+00 3.60592918209098e-03 1.25549985156246e-03 
6.30208333333333e+00 3.56670054547584e-03 1.24892658637128e-03 
6.32291666666667e+00 3.52768937612321e-03 1.24234264819810e-03 
6.34375000000000e+00 3.48889586763521e-03 1.23574608208606e-03 
6.36458333333333e+00 3.45032030182833e-03 1.22913581531174e-03 
6.38541666666667e+00 3.41196295105573e-03 1.22251280384812e-03 
6.40625000000000e+00 3.37382404904541e-03 1.21587334468294e-03 
6.42708333333333e+00 3.33590422421768e-03 1.20920923766551e-03 
6.44791666666667e+00 3.29820424105187e-03 1.20251768163456e-03 
6.46875000000000e+00 3.26072478097318e-03 1.19580050463227e-03 
