Energy(eV)           EEDF(eV^-(3/2))      Anisotropy(eV^-(3/2))
1.50000000000000e-02 4.99089544909838e-01 9.00246809375889e-03 
4.50000000000000e-02 4.98839557146133e-01 7.06941485909095e-03 
7.50000000000000e-02 4.98407071901602e-01 1.27336871840869e-02 
1.05000000000000e-01 4.97835277098607e-01 1.66780645756148e-02 
1.35000000000000e-01 4.97192900512965e-01 1.91894251744482e-02 
1.65000000000000e-01 4.96474143785719e-01 2.09458993000135e-02 
1.95000000000000e-01 4.95726784999125e-01 2.21253698504576e-02 
2.25000000000000e-01 4.94951318313826e-01 2.30065047666733e-02 
2.55000000000000e-01 4.94138353986721e-01 2.42343712414066e-02 
2.85000000000000e-01 4.93270834544499e-01 2.56076078587622e-02 
3.15000000000000e-01 4.92368447583181e-01 2.60316539689030e-02 
3.45000000000000e-01 4.91457346012379e-01 2.56496059526018e-02 
3.75000000000000e-01 4.90556706937438e-01 2.57308866870681e-02 
4.05000000000000e-01 4.89616290505015e-01 2.64428046281275e-02 
4.35000000000000e-01 4.88630465432296e-01 2.65674640428618e-02 
4.65000000000000e-01 4.87625318680805e-01 2.62222293488733e-02 
4.95000000000000e-01 4.86631550952634e-01 2.68782457351529e-02 
5.25000000000000e-01 4.85567145949893e-01 2.85000258579407e-02 
5.55000000000000e-01 4.84429410885084e-01 2.95301599039645e-02 
5.85000000000000e-01 4.83238870677048e-01 3.00454293821089e-02 
6.15000000000000e-01 4.82048931669669e-01 3.15787426452583e-02 
6.45000000000000e-01 4.80767993200782e-01 3.40972690228496e-02 
6.75000000000000e-01 4.79379690962010e-01 3.64982339001815e-02 
7.05000000000000e-01 4.77863850463224e-01 3.87696924708101e-02 
7.35000000000000e-01 4.76286275780821e-01 4.20600052336633e-02 
7.65000000000000e-01 4.74539694467023e-01 4.63610842225372e-02 
7.95000000000000e-01 4.72595231800047e-01 5.11188057986501e-02 
8.25000000000000e-01 4.70409599145405e-01 5.61654642509739e-02 
8.55000000000000e-01 4.67994816827855e-01 6.19213137767297e-02 
8.85000000000000e-01 4.65280835962283e-01 6.84041560384372e-02 
9.15000000000000e-01 4.62234407549023e-01 7.54172568691161e-02 
9.45000000000000e-01 4.58846727721367e-01 8.29460496649892e-02 
9.75000000000000e-01 4.55089306606274e-01 9.09072040364023e-02 
1.00500000000000e+00 4.50939491176964e-01 9.91319171315368e-02 
1.03500000000000e+00 4.46323014721786e-01 1.07399647731828e-01 
1.06500000000000e+00 4.41191182817273e-01 1.15630257476796e-01 
1.09500000000000e+00 4.35517200956871e-01 1.23740321270684e-01 
1.12500000000000e+00 4.29288159033388e-01 1.31625325415586e-01 
1.15500000000000e+00 4.22477981603500e-01 1.39292644610203e-01 
1.18500000000000e+00 4.15114835038773e-01 1.46909995078967e-01 
1.21500000000000e+00 4.07143551853811e-01 1.54402181772699e-01 
1.24500000000000e+00 3.98408670546978e-01 1.61518492956159e-01 
1.27500000000000e+00 3.88883277486356e-01 1.68037989700903e-01 
1.30500000000000e+00 3.78555624507931e-01 1.73611113632102e-01 
1.33500000000000e+00 3.67394188335747e-01 1.77862053392055e-01 
1.36500000000000e+00 3.55408109529101e-01 1.80481560728447e-01 
1.39500000000000e+00 3.42675244703352e-01 1.81271735060991e-01 
1.42500000000000e+00 3.29276204960425e-01 1.80157983364958e-01 
1.45500000000000e+00 3.15327666809181e-01 1.77227492628856e-01 
1.48500000000000e+00 3.00970772934872e-01 1.72739765538819e-01 
1.51500000000000e+00 2.86358364664246e-01 1.67102795953084e-01 
1.54500000000000e+00 2.71842523870531e-01 1.60716534161957e-01 
1.57500000000000e+00 2.57551255808997e-01 1.54020028673402e-01 
1.60500000000000e+00 2.43586845730942e-01 1.47349503648908e-01 
1.63500000000000e+00 2.30097487735341e-01 1.40886388339721e-01 
1.66500000000000e+00 2.17155171157471e-01 1.34686635528895e-01 
1.69500000000000e+00 2.04749291669519e-01 1.28695812603245e-01 
1.72500000000000e+00 1.92910166928800e-01 1.22766637473091e-01 
1.75500000000000e+00 1.81715402567522e-01 1.16716934491789e-01 
1.78500000000000e+00 1.71149834616795e-01 1.10469066514695e-01 
1.81500000000000e+00 1.61213378431910e-01 1.04053902137314e-01 
1.84500000000000e+00 1.51909801351565e-01 9.76282674153605e-02 
1.87500000000000e+00 1.43243741525385e-01 9.14199504270466e-02 
1.90500000000000e+00 1.35194795248656e-01 8.56552886768254e-02 
1.93500000000000e+00 1.27817243455865e-01 8.04320282485490e-02 
1.96500000000000e+00 1.21100178105053e-01 7.57614527961832e-02 
1.99500000000000e+00 1.14990598480902e-01 7.15561118193764e-02 
2.02500000000000e+00 1.09441850139543e-01 6.76745885390317e-02 
2.05500000000000e+00 1.04399059605222e-01 6.39955802088769e-02 
2.08500000000000e+00 9.98133963661076e-02 6.04514462384713e-02 
2.11500000000000e+00 9.56347530046745e-02 5.70204803805715e-02 
2.14500000000000e+00 9.17500066590494e-02 5.37610579941460e-02 
2.17500000000000e+00 8.81411187960476e-02 5.06933695704381e-02 
2.20500000000000e+00 8.47971669520321e-02 4.78399044713384e-02 
2.23500000000000e+00 8.16994633532803e-02 4.52075466601000e-02 
2.26500000000000e+00 7.88369027252101e-02 4.27839781863938e-02 
2.29500000000000e+00 7.61970342935777e-02 4.05429395981939e-02 
2.32500000000000e+00 7.37541517759653e-02 3.84544368771853e-02 
2.35500000000000e+00 7.14835689996282e-02 3.64960789629578e-02 
2.38500000000000e+00 6.93621352984644e-02 3.46544265252571e-02 
2.41500000000000e+00 6.73726694739266e-02 3.29257682459715e-02 
2.44500000000000e+00 6.55129985562138e-02 3.13136202233357e-02 
2.47500000000000e+00 6.37797422235276e-02 2.98191997216698e-02 
2.50500000000000e+00 6.21695812756448e-02 2.84400260813352e-02 
2.53500000000000e+00 6.06692405473299e-02 2.71752853511706e-02 
2.56500000000000e+00 5.92586672509180e-02 2.60098840334407e-02 
2.59500000000000e+00 5.79251480337304e-02 2.49246355700499e-02 
2.62500000000000e+00 5.66593525163415e-02 2.39025093376376e-02 
2.65500000000000e+00 5.54524910989941e-02 2.29304013997932e-02 
2.68500000000000e+00 5.43060164915225e-02 2.20103222720621e-02 
2.71500000000000e+00 5.32209110167577e-02 2.11512806874317e-02 
2.74500000000000e+00 5.21940189859358e-02 2.03590110651385e-02 
2.77500000000000e+00 5.12229569738844e-02 1.96335606588949e-02 
2.80500000000000e+00 5.02991500521080e-02 1.89635616144090e-02 
2.83500000000000e+00 4.94134020646226e-02 1.83351233695606e-02 
2.86500000000000e+00 4.85624580439795e-02 1.77400527310862e-02 
2.89500000000000e+00 4.77435245909480e-02 1.71752632596804e-02 
2.92500000000000e+00 4.69572378499833e-02 1.66449777539993e-02 
2.95500000000000e+00 4.62036822908144e-02 1.61549621177326e-02 
2.98500000000000e+00 4.54795003222586e-02 1.57045539328272e-02 
3.01500000000000e+00 4.47819959900693e-02 1.52890040860470e-02 
3.04500000000000e+00 4.41076553766734e-02 1.49002492487817e-02 
3.07500000000000e+00 4.34535859427584e-02 1.45309416642608e-02 
3.10500000000000e+00 4.28195978668554e-02 1.41792147658625e-02 
3.13500000000000e+00 4.22049796106600e-02 1.38458230370048e-02 
3.16500000000000e+00 4.16095182838379e-02 1.35330326035897e-02 
3.19500000000000e+00 4.10324231460246e-02 1.32426263922499e-02 
3.22500000000000e+00 4.04715098929672e-02 1.29721389107068e-02 
3.25500000000000e+00 3.99255278673273e-02 1.27168700700675e-02 
3.28500000000000e+00 3.93931962042736e-02 1.24723920761842e-02 
3.31500000000000e+00 3.88738534302212e-02 1.22365446979996e-02 
3.34500000000000e+00 3.83672637785326e-02 1.20101164141890e-02 
3.37500000000000e+00 3.78729676486688e-02 1.17936993194670e-02 
3.40500000000000e+00 3.73904578081711e-02 1.15870981140915e-02 
3.43500000000000e+00 3.69190187845619e-02 1.13893200703827e-02 
3.46500000000000e+00 3.64577924086272e-02 1.11984385586995e-02 
3.49500000000000e+00 3.60063528674137e-02 1.10130004071508e-02 
3.52500000000000e+00 3.55643973535680e-02 1.08327256176608e-02 
3.55500000000000e+00 3.51317743029856e-02 1.06581632869913e-02 
3.58500000000000e+00 3.47082445063841e-02 1.04906061773145e-02 
3.61500000000000e+00 3.42935694536973e-02 1.03314680928891e-02 
3.64500000000000e+00 3.38872714941332e-02 1.01804878529407e-02 
3.67500000000000e+00 3.34890398282548e-02 1.00355958232965e-02 
3.70500000000000e+00 3.30985818204632e-02 9.89563552399480e-03 
3.73500000000000e+00 3.27156881544205e-02 9.76072600266503e-03 
3.76500000000000e+00 3.23401051642081e-02 9.63088996169460e-03 
3.79500000000000e+00 3.19715990065526e-02 9.50561073667442e-03 
3.82500000000000e+00 3.16098120821161e-02 9.38432933396384e-03 
3.85500000000000e+00 3.12544250703656e-02 9.26660610727448e-03 
3.88500000000000e+00 3.09052063664001e-02 9.15198094529194e-03 
3.91500000000000e+00 3.05619257144983e-02 9.04043270681120e-03 
3.94500000000000e+00 3.02246124133326e-02 8.93236105329849e-03 
3.97500000000000e+00 2.98930691926031e-02 8.82804867056534e-03 
4.00500000000000e+00 2.95672663992679e-02 8.72743722466356e-03 
4.03500000000000e+00 2.92464223918028e-02 8.63050105067788e-03 
4.06500000000000e+00 2.89300461813159e-02 8.53700160420219e-03 
4.09500000000000e+00 2.86181364570861e-02 8.44671944172267e-03 
4.12500000000000e+00 2.83105059697240e-02 8.35958226280586e-03 
4.15500000000000e+00 2.80069468011384e-02 8.27540929203432e-03 
4.18500000000000e+00 2.77073269943875e-02 8.19394729695367e-03 
4.21500000000000e+00 2.74115085103230e-02 8.11510273474735e-03 
4.24500000000000e+00 2.71194520949718e-02 8.03885267049385e-03 
4.27500000000000e+00 2.68310144667207e-02 7.96517531340758e-03 
4.30500000000000e+00 2.65460758186668e-02 7.89405834652139e-03 
4.33500000000000e+00 2.62645300900002e-02 7.82546379945830e-03 
4.36500000000000e+00 2.59862712093153e-02 7.75926535313503e-03 
4.39500000000000e+00 2.57111924332231e-02 7.69527099895493e-03 
4.42500000000000e+00 2.54391769359698e-02 7.63330297394430e-03 
4.45500000000000e+00 2.51701625279190e-02 7.57322437510066e-03 
4.48500000000000e+00 2.49040978519885e-02 7.51493990916439e-03 
4.51500000000000e+00 2.46409006846443e-02 7.45819975637974e-03 
4.54500000000000e+00 2.43805619492365e-02 7.40261278903197e-03 
4.57500000000000e+00 2.41232195320913e-02 7.34801658411750e-03 
4.60500000000000e+00 2.38688156404326e-02 7.29441775384398e-03 
4.63500000000000e+00 2.36172850262562e-02 7.24171266977921e-03 
4.66500000000000e+00 2.33685865180967e-02 7.18977935763574e-03 
4.69500000000000e+00 2.31226752845201e-02 7.13854249149632e-03 
4.72500000000000e+00 2.28795005022118e-02 7.08797235219547e-03 
4.75500000000000e+00 2.26390042949473e-02 7.03822014309402e-03 
4.78500000000000e+00 2.24011356344589e-02 6.98963835874519e-03 
4.81500000000000e+00 2.21658310947204e-02 6.94247565573878e-03 
4.84500000000000e+00 2.19330554292688e-02 6.89678345344912e-03 
4.87500000000000e+00 2.17027639068682e-02 6.85256409242835e-03 
4.90500000000000e+00 2.14748910944549e-02 6.80967019715529e-03 
4.93500000000000e+00 2.12493484372187e-02 6.76776649975168e-03 
4.96500000000000e+00 2.10260824818703e-02 6.72658981841231e-03 
4.99500000000000e+00 2.08050604354719e-02 6.68606083215673e-03 
5.02500000000000e+00 2.05861682370957e-02 6.64616907233783e-03 
5.05500000000000e+00 2.03692130493896e-02 6.60702360378578e-03 
5.08500000000000e+00 2.01541309011471e-02 6.56878424722888e-03 
5.11500000000000e+00 1.99408592909809e-02 6.53132938864336e-03 
5.14500000000000e+00 1.97293369667550e-02 6.49434759175860e-03 
5.17500000000000e+00 1.95195560322963e-02 6.45770582732655e-03 
5.20500000000000e+00 1.93115286199507e-02 6.42138297509644e-03 
5.23500000000000e+00 1.91052224682044e-02 6.38534420505519e-03 
5.26500000000000e+00 1.89006137165654e-02 6.34956461894067e-03 
5.29500000000000e+00 1.86976882123635e-02 6.31403555919898e-03 
5.32500000000000e+00 1.84964245253970e-02 6.27875345266177e-03 
5.35500000000000e+00 1.82967916187255e-02 6.24371592462923e-03 
5.38500000000000e+00 1.80987747219178e-02 6.20891588756634e-03 
5.41500000000000e+00 1.79023595303719e-02 6.17434300494176e-03 
5.44500000000000e+00 1.77075325497624e-02 6.13999712306672e-03 
5.47500000000000e+00 1.75142795293364e-02 6.10590143239575e-03 
5.50500000000000e+00 1.73225855966341e-02 6.07206144288767e-03 
5.53500000000000e+00 1.71324599175610e-02 6.03843796112833e-03 
5.56500000000000e+00 1.69439019595151e-02 6.00499902869073e-03 
5.59500000000000e+00 1.67568992482077e-02 5.97174354045217e-03 
5.62500000000000e+00 1.65714353214276e-02 5.93868375903025e-03 
5.65500000000000e+00 1.63874900217165e-02 5.90583587554431e-03 
5.68500000000000e+00 1.62050503342597e-02 5.87321068577607e-03 
5.71500000000000e+00 1.60241030451806e-02 5.84080260156949e-03 
5.74500000000000e+00 1.58446468083573e-02 5.80859163401252e-03 
5.77500000000000e+00 1.56666695596994e-02 5.77657092191629e-03 
5.80500000000000e+00 1.54901593235743e-02 5.74474271298096e-03 
5.83500000000000e+00 1.53150971594612e-02 5.71310998611576e-03 
5.86500000000000e+00 1.51414676963067e-02 5.68169009706461e-03 
5.89500000000000e+00 1.49692562091647e-02 5.65050549349619e-03 
5.92500000000000e+00 1.47984146666514e-02 5.61957140268736e-03 
5.95500000000000e+00 1.46288794293851e-02 5.58889774089930e-03 
5.98500000000000e+00 1.44606380539004e-02 5.55848290696788e-03 
6.01500000000000e+00 1.42936782259514e-02 5.52823300666328e-03 
6.04500000000000e+00 1.41277060084508e-02 5.49799154191597e-03 
6.07500000000000e+00 1.39626899581152e-02 5.46763711385949e-03 
6.10500000000000e+00 1.37986321364986e-02 5.43716715308772e-03 
6.13500000000000e+00 1.36355631541172e-02 5.40660054124050e-03 
6.16500000000000e+00 1.34734986581534e-02 5.37595614238338e-03 
6.19500000000000e+00 1.33124397612818e-02 5.34523861630785e-03 
6.22500000000000e+00 1.31523875376467e-02 5.31443992382328e-03 
6.25500000000000e+00 1.29933437489486e-02 5.28355554944621e-03 
6.28500000000000e+00 1.28353096576070e-02 5.25259444532211e-03 
6.31500000000000e+00 1.26782860150333e-02 5.22156946537275e-03 
6.34500000000000e+00 1.25222733047330e-02 5.19048483699439e-03 
6.37500000000000e+00 1.23672720979830e-02 5.15933606003336e-03 
6.40500000000000e+00 1.22132831843112e-02 5.12810479583181e-03 
6.43500000000000e+00 1.20603091047516e-02 5.09676181923869e-03 
6.46500000000000e+00 1.19083527871007e-02 5.06529735973277e-03 
6.49500000000000e+00 1.17574165019725e-02 5.03372428337384e-03 
6.52500000000000e+00 1.16075019381203e-02 5.00206381874677e-03 
6.55500000000000e+00 1.14586099191733e-02 4.97033555531118e-03 
6.58500000000000e+00 1.13107411046516e-02 4.93854917932424e-03 
6.61500000000000e+00 1.11638959847756e-02 4.90670309741804e-03 
6.64500000000000e+00 1.10180848680431e-02 4.87478961074049e-03 
6.67500000000000e+00 1.08733084978938e-02 4.84281348542151e-03 
6.70500000000000e+00 1.07295672485866e-02 4.81079059669757e-03 
6.73500000000000e+00 1.05868607577895e-02 4.77874423680168e-03 
6.76500000000000e+00 1.04451879556325e-02 4.74669555165576e-03 
6.79500000000000e+00 1.03045474326875e-02 4.71465712049764e-03 
6.82500000000000e+00 1.01649364460384e-02 4.68263721464225e-03 
6.85500000000000e+00 1.00263511397257e-02 4.65063732268112e-03 
6.88500000000000e+00 9.88878963631100e-03 4.61865495292299e-03 
6.91500000000000e+00 9.75225018935740e-03 4.58668873158031e-03 
6.94500000000000e+00 9.61668743543934e-03 4.55474336218582e-03 
6.97500000000000e+00 9.48210032941140e-03 4.52281599947200e-03 
7.00500000000000e+00 9.34848773703249e-03 4.49088386646506e-03 
7.03500000000000e+00 9.21582001239975e-03 4.45889163270191e-03 
7.06500000000000e+00 9.08408608410492e-03 4.42679680493904e-03 
7.09500000000000e+00 8.95328932782766e-03 4.39452223454101e-03 
7.12500000000000e+00 8.82338892370200e-03 4.36179925149827e-03 
7.15500000000000e+00 8.69430939155592e-03 4.32831643142164e-03 
7.18500000000000e+00 8.56607931009789e-03 4.29397190705167e-03 
7.21500000000000e+00 8.43872604010567e-03 4.25881126673622e-03 
7.24500000000000e+00 8.31227534086838e-03 4.22287569741660e-03 
7.27500000000000e+00 8.18675240208335e-03 4.18619737016915e-03 
7.30500000000000e+00 8.06218157748283e-03 4.14880368360381e-03 
7.33500000000000e+00 7.93858682063936e-03 4.11071919650184e-03 
7.36500000000000e+00 7.81599135544666e-03 4.07197214560801e-03 
7.39500000000000e+00 7.69441730587772e-03 4.03261530242306e-03 
7.42500000000000e+00 7.57389217327256e-03 3.99275160461533e-03 
7.45500000000000e+00 7.45444655696028e-03 3.95249369774053e-03 
7.48500000000000e+00 7.33609329452569e-03 3.91190267593336e-03 
7.51500000000000e+00 7.21884449070803e-03 3.87100266946047e-03 
7.54500000000000e+00 7.10271168237255e-03 3.82981658205794e-03 
7.57500000000000e+00 6.98770564405722e-03 3.78836959318242e-03 
7.60500000000000e+00 6.87383638768111e-03 3.74668762755671e-03 
7.63500000000000e+00 6.76111320335647e-03 3.70479490732739e-03 
7.66500000000000e+00 6.64954465517100e-03 3.66271476168155e-03 
7.69500000000000e+00 6.53913866676187e-03 3.62047046307765e-03 
7.72500000000000e+00 6.42990948517330e-03 3.57808202234682e-03 
7.75500000000000e+00 6.32187749061366e-03 3.53556132511538e-03 
7.78500000000000e+00 6.21504862843425e-03 3.49292130679570e-03 
7.81500000000000e+00 6.10942847099797e-03 3.45018192650414e-03 
7.84500000000000e+00 6.00501448409152e-03 3.40737027254081e-03 
7.87500000000000e+00 5.90181075827723e-03 3.36450514271335e-03 
7.90500000000000e+00 5.79982102699640e-03 3.32160030675063e-03 
7.93500000000000e+00 5.69901873945636e-03 3.27867489680775e-03 
7.96500000000000e+00 5.59939297652588e-03 3.23573792759276e-03 
7.99500000000000e+00 5.50094750647514e-03 3.19283288886181e-03 
8.02500000000000e+00 5.40369455812248e-03 3.15008259956572e-03 
8.05500000000000e+00 5.30767585935884e-03 3.10757767188337e-03 
8.08500000000000e+00 5.21286779997287e-03 3.06533054623971e-03 
8.11500000000000e+00 5.11926549309644e-03 3.02332977056059e-03 
8.14500000000000e+00 5.02688095392516e-03 2.98158536293228e-03 
8.17500000000000e+00 4.93570758940595e-03 2.94011115895764e-03 
8.20500000000000e+00 4.84573649158171e-03 2.89891735674623e-03 
8.23500000000000e+00 4.75695714191912e-03 2.85801510953249e-03 
8.26500000000000e+00 4.66936063377889e-03 2.81741297272250e-03 
8.29500000000000e+00 4.58293970211509e-03 2.77711524858017e-03 
8.32500000000000e+00 4.49767447115739e-03 2.73712658898125e-03 
8.35500000000000e+00 4.41353310386247e-03 2.69745497707447e-03 
8.38500000000000e+00 4.33050790102996e-03 2.65810287364793e-03 
8.41500000000000e+00 4.24859199471123e-03 2.61904499004779e-03 
8.44500000000000e+00 4.16778223375986e-03 2.58022639367221e-03 
8.47500000000000e+00 4.08807499428287e-03 2.54162677271208e-03 
8.50500000000000e+00 4.00946630982107e-03 2.50324290410275e-03 
8.53500000000000e+00 3.93194219865997e-03 2.46505630725675e-03 
8.56500000000000e+00 3.85548933965357e-03 2.42705574078473e-03 
8.59500000000000e+00 3.78010537110155e-03 2.38923819832109e-03 
8.62500000000000e+00 3.70579645397066e-03 2.35158152760422e-03 
8.65500000000000e+00 3.63257757825080e-03 2.31405407489273e-03 
8.68500000000000e+00 3.56044773766504e-03 2.27665578477485e-03 
8.71500000000000e+00 3.48940546552921e-03 2.23940071015747e-03 
8.74500000000000e+00 3.41944886123706e-03 2.20230237988160e-03 
8.77500000000000e+00 3.35057558331124e-03 2.16537352314353e-03 
8.80500000000000e+00 3.28278287256421e-03 2.12862895358534e-03 
8.83500000000000e+00 3.21606725810419e-03 2.09208667612481e-03 
8.86500000000000e+00 3.15042475885697e-03 2.05576232871611e-03 
8.89500000000000e+00 3.08585102155472e-03 2.01966682146196e-03 
8.92500000000000e+00 3.02234011681936e-03 1.98380915204859e-03 
8.95500000000000e+00 2.95988468452003e-03 1.94819775409271e-03 
8.98500000000000e+00 2.89847962640179e-03 1.91284011643799e-03 
9.01500000000000e+00 2.83811954953727e-03 1.87777057091555e-03 
9.04500000000000e+00 2.77885336432113e-03 1.84301691868419e-03 
9.07500000000000e+00 2.72067072160308e-03 1.80861143601102e-03 
9.10500000000000e+00 2.66356114192316e-03 1.77455718541190e-03 
9.13500000000000e+00 2.60750954023760e-03 1.74085902118238e-03 
9.16500000000000e+00 2.55250315712585e-03 1.70751992969314e-03 
9.19500000000000e+00 2.49853141712420e-03 1.67455003716662e-03 
9.22500000000000e+00 2.44558108680788e-03 1.64198489284023e-03 
9.25500000000000e+00 2.39363617381488e-03 1.60986654916239e-03 
9.28500000000000e+00 2.34268298269263e-03 1.57820845744572e-03 
9.31500000000000e+00 2.29270792055978e-03 1.54700747624028e-03 
