Energy(eV)           EEDF(eV^-(3/2))      Anisotropy(eV^-(3/2))
1.04166666666667e-02 1.78302483705754e-01 -1.46317661388576e-03 
3.12500000000000e-02 1.78323631628152e-01 -5.24431655232824e-04 
5.20833333333333e-02 1.78341236127491e-01 7.90637651185524e-05 
7.29166666666667e-02 1.78355457981678e-01 4.59391571760584e-04 
9.37500000000000e-02 1.78365875926694e-01 7.73729071413664e-04 
1.14583333333333e-01 1.78372282143959e-01 1.05901430720138e-03 
1.35416666666667e-01 1.78374492265893e-01 1.71148065365944e-03 
1.56250000000000e-01 1.78362589184709e-01 2.63610246438174e-03 
1.77083333333333e-01 1.78336669680646e-01 3.15915419586609e-03 
1.97916666666667e-01 1.78304642583304e-01 3.44158713344672e-03 
2.18750000000000e-01 1.78264229002688e-01 3.74810949721150e-03 
2.39583333333333e-01 1.78216610477071e-01 3.97698952649738e-03 
2.60416666666667e-01 1.78162694623695e-01 4.82259509277969e-03 
2.81250000000000e-01 1.78079046264479e-01 6.24645194035109e-03 
3.02083333333333e-01 1.77965156589979e-01 7.30809595786361e-03 
3.22916666666667e-01 1.77831826084985e-01 7.93432493905992e-03 
3.43750000000000e-01 1.77674023992591e-01 8.11251960678901e-03 
3.64583333333333e-01 1.77523703364175e-01 8.48395461910072e-03 
3.85416666666667e-01 1.77350681580889e-01 9.73926718216498e-03 
4.06250000000000e-01 1.77136003061495e-01 1.11232370267900e-02 
4.27083333333333e-01 1.76891376211637e-01 1.19856044641604e-02 
4.47916666666667e-01 1.76627753930548e-01 1.21446715737131e-02 
4.68750000000000e-01 1.76331033982636e-01 1.17559341303168e-02 
4.89583333333333e-01 1.76076189442251e-01 1.23720901477695e-02 
5.10416666666667e-01 1.75773144741519e-01 1.42155843736323e-02 
5.31250000000000e-01 1.75421563191373e-01 1.55549156336132e-02 
5.52083333333333e-01 1.75048105374870e-01 1.60166616100440e-02 
5.72916666666667e-01 1.74639551466195e-01 1.56175772964249e-02 
5.93750000000000e-01 1.74243440833705e-01 1.50668203841798e-02 
6.14583333333333e-01 1.73888365987894e-01 1.53910410295599e-02 
6.35416666666667e-01 1.73521951966472e-01 1.61814565090561e-02 
6.56250000000000e-01 1.73149376781852e-01 1.67565022403718e-02 
6.77083333333333e-01 1.72777516197178e-01 1.64261642377224e-02 
6.97916666666667e-01 1.72350323716270e-01 1.53895403595871e-02 
7.18750000000000e-01 1.72038161836265e-01 1.49756116248234e-02 
7.39583333333333e-01 1.71723215850452e-01 1.56717046153268e-02 
7.60416666666667e-01 1.71393475223118e-01 1.62946747839414e-02 
7.81250000000000e-01 1.71055127773194e-01 1.66576691766903e-02 
8.02083333333333e-01 1.70698045298261e-01 1.65301462404668e-02 
8.22916666666667e-01 1.70318397696523e-01 1.62093096815119e-02 
8.43750000000000e-01 1.69952238423740e-01 1.63482294370428e-02 
8.64583333333333e-01 1.69549850271467e-01 1.68206791931892e-02 
8.85416666666667e-01 1.69109219662695e-01 1.72338000961116e-02 
9.06250000000000e-01 1.68632737609892e-01 1.72154718747867e-02 
9.27083333333333e-01 1.68112424296207e-01 1.68803737941019e-02 
9.47916666666667e-01 1.67639286863101e-01 1.68915412852070e-02 
9.68750000000000e-01 1.67148617708391e-01 1.72823582895206e-02 
9.89583333333333e-01 1.66639378199275e-01 1.76383509180207e-02 
1.01041666666667e+00 1.66114119240901e-01 1.79021975442963e-02 
1.03125000000000e+00 1.65573493224116e-01 1.80051272269986e-02 
1.05208333333333e+00 1.65014774601079e-01 1.80266228918596e-02 
1.07291666666667e+00 1.64465048199970e-01 1.81952562035648e-02 
1.09375000000000e+00 1.63900934563966e-01 1.84598947916961e-02 
1.11458333333333e+00 1.63323310665328e-01 1.86986237826787e-02 
1.13541666666667e+00 1.62732633081859e-01 1.88288075130857e-02 
1.15625000000000e+00 1.62120191576680e-01 1.88669552716519e-02 
1.17708333333333e+00 1.61515496840166e-01 1.90101682533504e-02 
1.19791666666667e+00 1.60897111108508e-01 1.92398920265855e-02 
1.21875000000000e+00 1.60267734839815e-01 1.94561518244944e-02 
1.23958333333333e+00 1.59630914337340e-01 1.96361433633677e-02 
1.26041666666667e+00 1.58983782107850e-01 1.97834913770449e-02 
1.28125000000000e+00 1.58336359523719e-01 1.99613781130278e-02 
1.30208333333333e+00 1.57681683614604e-01 2.01627930997350e-02 
1.32291666666667e+00 1.57021638776122e-01 2.03585512094827e-02 
1.34375000000000e+00 1.56357378788059e-01 2.05348545167358e-02 
1.36458333333333e+00 1.55686873219960e-01 2.06923621773017e-02 
1.38541666666667e+00 1.55016749238357e-01 2.08696397085095e-02 
1.40625000000000e+00 1.54342503266246e-01 2.10639736557329e-02 
1.42708333333333e+00 1.53664291083143e-01 2.12542890021609e-02 
1.44791666666667e+00 1.52982329337009e-01 2.14335305299402e-02 
1.46875000000000e+00 1.52296134602452e-01 2.16011405426193e-02 
1.48958333333333e+00 1.51608096723794e-01 2.17687408616787e-02 
1.51041666666667e+00 1.50916998845251e-01 2.19367705972076e-02 
1.53125000000000e+00 1.50223007318001e-01 2.21002096483427e-02 
1.55208333333333e+00 1.49526177230196e-01 2.22576531484094e-02 
1.57291666666667e+00 1.48826736382749e-01 2.24102763509503e-02 
1.59375000000000e+00 1.48125285417725e-01 2.25614285328606e-02 
1.61458333333333e+00 1.47421566276790e-01 2.27104641516960e-02 
1.63541666666667e+00 1.46715735532158e-01 2.28546594832619e-02 
1.65625000000000e+00 1.46007746668176e-01 2.29937401789561e-02 
1.67708333333333e+00 1.45298224579398e-01 2.31303444517200e-02 
1.69791666666667e+00 1.44587079736153e-01 2.32649819493711e-02 
1.71875000000000e+00 1.43874691342777e-01 2.33963221491999e-02 
1.73958333333333e+00 1.43161675918021e-01 2.35240544953983e-02 
1.76041666666667e+00 1.42448183873123e-01 2.36482072864192e-02 
1.78125000000000e+00 1.41734360580243e-01 2.37688732640269e-02 
1.80208333333333e+00 1.41020347367202e-01 2.38860394846569e-02 
1.82291666666667e+00 1.40306289504078e-01 2.39994977290108e-02 
1.84375000000000e+00 1.39592338772651e-01 2.41090265788267e-02 
1.86458333333333e+00 1.38878647804079e-01 2.42146048482682e-02 
1.88541666666667e+00 1.38165365302585e-01 2.43163437937854e-02 
1.90625000000000e+00 1.37452634352166e-01 2.44144042239370e-02 
1.92708333333333e+00 1.36739943917549e-01 2.45088527047926e-02 
1.94791666666667e+00 1.36027259954387e-01 2.45997532789508e-02 
1.96875000000000e+00 1.35314707415706e-01 2.46870739955252e-02 
1.98958333333333e+00 1.34602390893339e-01 2.47707063756347e-02 
2.01041666666667e+00 1.33890437042373e-01 2.48506611467403e-02 
2.03125000000000e+00 1.33178972468404e-01 2.49270153701445e-02 
2.05208333333333e+00 1.32468118847210e-01 2.49997784227545e-02 
2.07291666666667e+00 1.31757997095842e-01 2.50689826924738e-02 
2.09375000000000e+00 1.31048724590768e-01 2.51347137233470e-02 
2.11458333333333e+00 1.30340228528618e-01 2.51970051619977e-02 
2.13541666666667e+00 1.29631873145451e-01 2.52557696732254e-02 
2.15625000000000e+00 1.28923768976406e-01 2.53110081943346e-02 
2.17708333333333e+00 1.28216024193705e-01 2.53627750040611e-02 
2.19791666666667e+00 1.27508744662257e-01 2.54110801073214e-02 
2.21875000000000e+00 1.26801932048104e-01 2.54558224408328e-02 
2.23958333333333e+00 1.26095539491352e-01 2.54968666959168e-02 
2.26041666666667e+00 1.25389679436924e-01 2.55341709853886e-02 
2.28125000000000e+00 1.24684461902554e-01 2.55677668988464e-02 
2.30208333333333e+00 1.23979994752009e-01 2.55977250151015e-02 
2.32291666666667e+00 1.23276452519111e-01 2.56241243896161e-02 
2.34375000000000e+00 1.22573984117434e-01 2.56470103976399e-02 
2.36458333333333e+00 1.21872690383275e-01 2.56664199113120e-02 
2.38541666666667e+00 1.21172670083375e-01 2.56824243259530e-02 
2.40625000000000e+00 1.20474018627360e-01 2.56950610943379e-02 
2.42708333333333e+00 1.19778515232644e-01 2.57044037176195e-02 
2.44791666666667e+00 1.19086673138065e-01 2.57105389920014e-02 
2.46875000000000e+00 1.18398581390692e-01 2.57135289631282e-02 
2.48958333333333e+00 1.17714325945221e-01 2.57134408890554e-02 
2.51041666666667e+00 1.17033989346486e-01 2.57104144132808e-02 
2.53125000000000e+00 1.16355259118254e-01 2.57044875704350e-02 
2.55208333333333e+00 1.15678214301338e-01 2.56956010122989e-02 
2.57291666666667e+00 1.15002932970899e-01 2.56838008553210e-02 
2.59375000000000e+00 1.14329490644231e-01 2.56691712392617e-02 
2.61458333333333e+00 1.13658032532897e-01 2.56517914480857e-02 
2.63541666666667e+00 1.12988919261362e-01 2.56317334844936e-02 
2.65625000000000e+00 1.12322217875250e-01 2.56090633011540e-02 
2.67708333333333e+00 1.11657993684272e-01 2.55838330634587e-02 
2.69791666666667e+00 1.10996309833527e-01 2.55561138060368e-02 
2.71875000000000e+00 1.10337227647087e-01 2.55260037512429e-02 
2.73958333333333e+00 1.09680805337012e-01 2.54936157458683e-02 
2.76041666666667e+00 1.09027096400274e-01 2.54590387937332e-02 
2.78125000000000e+00 1.08376152096727e-01 2.54223225683121e-02 
2.80208333333333e+00 1.07728022389052e-01 2.53835024788639e-02 
2.82291666666667e+00 1.07082158156770e-01 2.53426295982137e-02 
2.84375000000000e+00 1.06438212543849e-01 2.52997033794446e-02 
2.86458333333333e+00 1.05796238052600e-01 2.52546784416861e-02 
2.88541666666667e+00 1.05156286372401e-01 2.52075341029424e-02 
2.90625000000000e+00 1.04518408864269e-01 2.51583147994607e-02 
2.92708333333333e+00 1.03882692781590e-01 2.51070993371684e-02 
2.94791666666667e+00 1.03249194329155e-01 2.50539335557636e-02 
2.96875000000000e+00 1.02617959556787e-01 2.49988417720192e-02 
2.98958333333333e+00 1.01989033423328e-01 2.49418709051602e-02 
3.01041666666667e+00 1.01362459152762e-01 2.48831006503806e-02 
3.03125000000000e+00 1.00738168094249e-01 2.48226149239239e-02 
3.05208333333333e+00 1.00116195034025e-01 2.47605161401611e-02 
3.07291666666667e+00 9.94965746932725e-02 2.46969620196439e-02 
3.09375000000000e+00 9.88793381149414e-02 2.46320503177461e-02 
3.11458333333333e+00 9.82645079431694e-02 2.45658263115390e-02 
3.13541666666667e+00 9.76520833372370e-02 2.44983384221850e-02 
3.15625000000000e+00 9.70420918571273e-02 2.44296185293969e-02 
3.17708333333333e+00 9.64345602785716e-02 2.43597035240781e-02 
3.19791666666667e+00 9.58295140626867e-02 2.42886530714028e-02 
3.21875000000000e+00 9.52274201578753e-02 2.42165255749266e-02 
3.23958333333333e+00 9.46289615943722e-02 2.41433651267696e-02 
3.26041666666667e+00 9.40341556070342e-02 2.40691733680923e-02 
3.28125000000000e+00 9.34430180655254e-02 2.39938804211669e-02 
3.30208333333333e+00 9.28555657771255e-02 2.39174852815716e-02 
3.32291666666667e+00 9.22707415574247e-02 2.38401029593289e-02 
3.34375000000000e+00 9.16878534647718e-02 2.37617555131033e-02 
3.36458333333333e+00 9.11069259535178e-02 2.36824316633735e-02 
3.38541666666667e+00 9.05279827004827e-02 2.36021582719636e-02 
3.40625000000000e+00 8.99510468221604e-02 2.35209613265551e-02 
3.42708333333333e+00 8.93761644734376e-02 2.34388855247335e-02 
3.44791666666667e+00 8.88033600539036e-02 2.33560126823280e-02 
3.46875000000000e+00 8.82326508082535e-02 2.32724406239140e-02 
3.48958333333333e+00 8.76640525101246e-02 2.31882323303485e-02 
3.51041666666667e+00 8.70975802152605e-02 2.31034175937851e-02 
3.53125000000000e+00 8.65332145333181e-02 2.30180203415905e-02 
3.55208333333333e+00 8.59709696852343e-02 2.29320448256985e-02 
3.57291666666667e+00 8.54108598615413e-02 2.28455052293486e-02 
3.59375000000000e+00 8.48528985689383e-02 2.27584351962010e-02 
3.61458333333333e+00 8.42970846188286e-02 2.26708781607302e-02 
3.63541666666667e+00 8.37433752194176e-02 2.25829188043822e-02 
3.65625000000000e+00 8.31917820280348e-02 2.24946384814495e-02 
3.67708333333333e+00 8.26423126915918e-02 2.24060423172520e-02 
3.69791666666667e+00 8.20949759322905e-02 2.23171140033130e-02 
3.71875000000000e+00 8.15496038893897e-02 2.22278792241431e-02 
3.73958333333333e+00 8.10059426662144e-02 2.21383438163470e-02 
3.76041666666667e+00 8.04640042881211e-02 2.20484697708483e-02 
3.78125000000000e+00 7.99238012729435e-02 2.19582562704767e-02 
3.80208333333333e+00 7.93853457312239e-02 2.18677593189676e-02 
3.82291666666667e+00 7.88486324739606e-02 2.17771776261660e-02 
3.84375000000000e+00 7.83136525896744e-02 2.16867960758407e-02 
3.86458333333333e+00 7.77804004289474e-02 2.15967869228168e-02 
3.88541666666667e+00 7.72488698476563e-02 2.15072007352394e-02 
3.90625000000000e+00 7.67190540399914e-02 2.14180479468474e-02 
3.92708333333333e+00 7.61909954354191e-02 2.13293599627888e-02 
3.94791666666667e+00 7.56646972322956e-02 2.12412307568106e-02 
3.96875000000000e+00 7.51401475858317e-02 2.11537348768300e-02 
3.98958333333333e+00 7.46173336017412e-02 2.10668865195473e-02 
4.01041666666667e+00 7.40962426513277e-02 2.09805185993402e-02 
4.03125000000000e+00 7.35772228900871e-02 2.08943960771049e-02 
4.05208333333333e+00 7.30602715688055e-02 2.08085989237677e-02 
4.07291666666667e+00 7.25453788801246e-02 2.07232138198957e-02 
4.09375000000000e+00 7.20325352965205e-02 2.06382343759353e-02 
4.11458333333333e+00 7.15215623869059e-02 2.05536961806366e-02 
4.13541666666667e+00 7.10117789973907e-02 2.04695968886280e-02 
4.15625000000000e+00 7.05031842628490e-02 2.03857473867680e-02 
4.17708333333333e+00 6.99957810990887e-02 2.03020589582053e-02 
4.19791666666667e+00 6.94895674227792e-02 2.02184875273927e-02 
4.21875000000000e+00 6.89848611135345e-02 2.01349898412615e-02 
4.23958333333333e+00 6.84821457578764e-02 2.00515873834659e-02 
4.26041666666667e+00 6.79814173461021e-02 1.99683415997271e-02 
4.28125000000000e+00 6.74826727068872e-02 1.98852607202285e-02 
4.30208333333333e+00 6.69859083145523e-02 1.98023328402739e-02 
4.32291666666667e+00 6.64911420008844e-02 1.97195658098734e-02 
4.34375000000000e+00 6.59983831273461e-02 1.96370658479975e-02 
4.36458333333333e+00 6.55076234790611e-02 1.95549421886336e-02 
4.38541666666667e+00 6.50188532708173e-02 1.94732243185775e-02 
4.40625000000000e+00 6.45320627854483e-02 1.93918081769612e-02 
4.42708333333333e+00 6.40471814862512e-02 1.93105159342278e-02 
4.44791666666667e+00 6.35641925456135e-02 1.92292843000717e-02 
4.46875000000000e+00 6.30830949251068e-02 1.91481350947830e-02 
4.48958333333333e+00 6.26038877064475e-02 1.90670734424713e-02 
4.51041666666667e+00 6.21265698093852e-02 1.89861482830985e-02 
4.53125000000000e+00 6.16510416708512e-02 1.89055140869843e-02 
4.55208333333333e+00 6.11772957773937e-02 1.88253179262079e-02 
4.57291666666667e+00 6.07053216547649e-02 1.87456160548640e-02 
4.59375000000000e+00 6.02351086821738e-02 1.86664005465636e-02 
4.61458333333333e+00 5.97666472395350e-02 1.85875995280191e-02 
4.63541666666667e+00 5.92999325622137e-02 1.85089976182487e-02 
4.65625000000000e+00 5.88349673081568e-02 1.84303277431107e-02 
4.67708333333333e+00 5.83717580319127e-02 1.83514652005234e-02 
4.69791666666667e+00 5.79103118653506e-02 1.82723676759778e-02 
4.71875000000000e+00 5.74506167082113e-02 1.81929135293794e-02 
4.73958333333333e+00 5.69926551410043e-02 1.81129394335901e-02 
4.76041666666667e+00 5.65364449096232e-02 1.80323620760856e-02 
4.78125000000000e+00 5.60820040706554e-02 1.79511833810682e-02 
4.80208333333333e+00 5.56293501627568e-02 1.78694129396598e-02 
4.82291666666667e+00 5.51785355085845e-02 1.77870553585670e-02 
4.84375000000000e+00 5.47295996952222e-02 1.77041546602220e-02 
4.86458333333333e+00 5.42825573326757e-02 1.76207728572290e-02 
4.88541666666667e+00 5.38374220719957e-02 1.75369446252508e-02 
4.90625000000000e+00 5.33942071187557e-02 1.74526702258463e-02 
4.92708333333333e+00 5.29529724696106e-02 1.73679550618065e-02 
4.94791666666667e+00 5.25137419408353e-02 1.72828466766869e-02 
4.96875000000000e+00 5.20765263966729e-02 1.71973744198307e-02 
4.98958333333333e+00 5.16413365849815e-02 1.71115496088227e-02 
5.01041666666667e+00 5.12081828052724e-02 1.70254555110682e-02 
5.03125000000000e+00 5.07765125260451e-02 1.69392714291018e-02 
5.05208333333333e+00 5.03463352448773e-02 1.68529691962207e-02 
5.07291666666667e+00 4.99176617572847e-02 1.67665294875396e-02 
5.09375000000000e+00 4.94905025906394e-02 1.66799621250255e-02 
5.11458333333333e+00 4.90649448590963e-02 1.65932857340836e-02 
5.13541666666667e+00 4.86413025334275e-02 1.65065362008273e-02 
5.15625000000000e+00 4.82195789682674e-02 1.64198060000153e-02 
5.17708333333333e+00 4.77997761977898e-02 1.63331248739299e-02 
5.19791666666667e+00 4.73818960308757e-02 1.62464906915932e-02 
5.21875000000000e+00 4.69658880308423e-02 1.61599449712851e-02 
5.23958333333333e+00 4.65516742375104e-02 1.60735832911219e-02 
5.26041666666667e+00 4.61392533384006e-02 1.59874470318383e-02 
5.28125000000000e+00 4.57286240559049e-02 1.59015351698400e-02 
5.30208333333333e+00 4.53197850994996e-02 1.58158377985642e-02 
5.32291666666667e+00 4.49125808584636e-02 1.57303552096055e-02 
5.34375000000000e+00 4.45069098201563e-02 1.56450750818293e-02 
5.36458333333333e+00 4.41027742769907e-02 1.55599831659018e-02 
5.38541666666667e+00 4.37001766221248e-02 1.54750805199780e-02 
5.40625000000000e+00 4.32991190424740e-02 1.53903203738744e-02 
5.42708333333333e+00 4.28996089521592e-02 1.53056255673664e-02 
5.44791666666667e+00 4.25016538217074e-02 1.52209925491741e-02 
5.46875000000000e+00 4.21052588720983e-02 1.51364439889047e-02 
5.48958333333333e+00 4.17104290535609e-02 1.50519804114469e-02 
5.51041666666667e+00 4.13171692583358e-02 1.49675771219906e-02 
5.53125000000000e+00 4.09258543753504e-02 1.48831070582190e-02 
5.55208333333333e+00 4.05364898462975e-02 1.47985251876421e-02 
5.57291666666667e+00 4.01490822235195e-02 1.47138184664055e-02 
5.59375000000000e+00 3.97636376514260e-02 1.46290012720928e-02 
5.61458333333333e+00 3.93801380097436e-02 1.45441181172292e-02 
5.63541666666667e+00 3.89984924069247e-02 1.44593087153399e-02 
5.65625000000000e+00 3.86187013313136e-02 1.43747196381123e-02 
5.67708333333333e+00 3.82407617290947e-02 1.42904097455005e-02 
5.69791666666667e+00 3.78646706038091e-02 1.42063812511523e-02 
5.71875000000000e+00 3.74904712299032e-02 1.41225306536391e-02 
5.73958333333333e+00 3.71182346446381e-02 1.40386058193722e-02 
5.76041666666667e+00 3.67479696937138e-02 1.39544287481991e-02 
5.78125000000000e+00 3.63796871464738e-02 1.38699696229852e-02 
5.80208333333333e+00 3.60133973468937e-02 1.37851919713512e-02 
5.82291666666667e+00 3.56490479618460e-02 1.37001006105127e-02 
5.84375000000000e+00 3.52866079240330e-02 1.36148265625821e-02 
5.86458333333333e+00 3.49260849345945e-02 1.35294586427212e-02 
5.88541666666667e+00 3.45674858240477e-02 1.34440009257817e-02 
5.90625000000000e+00 3.42108173438541e-02 1.33585011873994e-02 
5.92708333333333e+00 3.38554691385057e-02 1.32731525824488e-02 
5.94791666666667e+00 3.35012966779717e-02 1.31879944137718e-02 
5.96875000000000e+00 3.31483089435049e-02 1.31030357118354e-02 
5.98958333333333e+00 3.27965143687030e-02 1.30182892372085e-02 
6.01041666666667e+00 3.24459210953669e-02 1.29335732409057e-02 
6.03125000000000e+00 3.20965568603346e-02 1.28485305062208e-02 
6.05208333333333e+00 3.17484483376510e-02 1.27630162883110e-02 
6.07291666666667e+00 3.14016217509924e-02 1.26770757858344e-02 
6.09375000000000e+00 3.10561023570382e-02 1.25907597807540e-02 
6.11458333333333e+00 3.07120124473204e-02 1.25041856871088e-02 
6.13541666666667e+00 3.03697605044473e-02 1.24174571541124e-02 
6.15625000000000e+00 3.00293560025192e-02 1.23306479723650e-02 
6.17708333333333e+00 2.96908090977503e-02 1.22437515447285e-02 
6.19791666666667e+00 2.93541295182056e-02 1.21567410805540e-02 
6.21875000000000e+00 2.90193313436057e-02 1.20694993936183e-02 
6.23958333333333e+00 2.86864343599069e-02 1.19819403261691e-02 
6.26041666666667e+00 2.83554549183888e-02 1.18941045354013e-02 
6.28125000000000e+00 2.80264070475543e-02 1.18060478595495e-02 
6.30208333333333e+00 2.76993041444715e-02 1.17178128764494e-02 
6.32291666666667e+00 2.73741572216747e-02 1.16294001883800e-02 
6.34375000000000e+00 2.70509793200698e-02 1.15407207208215e-02 
6.36458333333333e+00 2.67297872800027e-02 1.14517175397799e-02 
6.38541666666667e+00 2.64105978070622e-02 1.13624056779281e-02 
6.40625000000000e+00 2.60934269080073e-02 1.12726279813570e-02 
6.42708333333333e+00 2.57783108980397e-02 1.11820628062301e-02 
6.44791666666667e+00 2.54652866827732e-02 1.10905900464930e-02 
6.46875000000000e+00 2.51543868651652e-02 1.09982592182871e-02 
