Energy(eV)           EEDF(eV^-(3/2))      Anisotropy(eV^-(3/2))
1.25000000000000e-02 5.48628677017775e-01 1.36447965244393e-02 
3.75000000000000e-02 5.48222476385886e-01 9.99112878719121e-03 
6.25000000000000e-02 5.47611748929583e-01 1.70912915752251e-02 
8.75000000000000e-02 5.46857844388512e-01 2.21118644268890e-02 
1.12500000000000e-01 5.46020614356019e-01 2.50578233495717e-02 
1.37500000000000e-01 5.45149266645174e-01 2.68641110520625e-02 
1.62500000000000e-01 5.44230958003940e-01 2.81354158024606e-02 
1.87500000000000e-01 5.43310053232392e-01 2.90357887156382e-02 
2.12500000000000e-01 5.42379148974753e-01 2.97545273249628e-02 
2.37500000000000e-01 5.41423660202522e-01 3.03835119626875e-02 
2.62500000000000e-01 5.40445186049740e-01 3.14141333665859e-02 
2.87500000000000e-01 5.39429833014344e-01 3.26668362175965e-02 
3.12500000000000e-01 5.38391869225559e-01 3.29166435411603e-02 
3.37500000000000e-01 5.37357460561512e-01 3.22858406245854e-02 
3.62500000000000e-01 5.36342265740392e-01 3.15133328097339e-02 
3.87500000000000e-01 5.35338984235805e-01 3.12517410867451e-02 
4.12500000000000e-01 5.34313826880354e-01 3.17861518859498e-02 
4.37500000000000e-01 5.33248406568323e-01 3.19451508501489e-02 
4.62500000000000e-01 5.32161305521725e-01 3.13878469104105e-02 
4.87500000000000e-01 5.31106052380956e-01 3.11765991848297e-02 
5.12500000000000e-01 5.30028766793551e-01 3.17604988294226e-02 
5.37500000000000e-01 5.28915663855229e-01 3.28689582527482e-02 
5.62500000000000e-01 5.27754615816968e-01 3.37161613474919e-02 
5.87500000000000e-01 5.26546563510753e-01 3.42533051468773e-02 
6.12500000000000e-01 5.25339284085101e-01 3.56820300240181e-02 
6.37500000000000e-01 5.24056237483382e-01 3.80535227043072e-02 
6.62500000000000e-01 5.22684400487121e-01 4.04961905123928e-02 
6.87500000000000e-01 5.21231844003974e-01 4.27315476162690e-02 
7.12500000000000e-01 5.19679916828749e-01 4.50232788677192e-02 
7.37500000000000e-01 5.18057679675118e-01 4.79659493681609e-02 
7.62500000000000e-01 5.16307163616879e-01 5.15508483425748e-02 
7.87500000000000e-01 5.14411980939107e-01 5.51991197960134e-02 
8.12500000000000e-01 5.12333668871280e-01 5.88214397671652e-02 
8.37500000000000e-01 5.10135880669177e-01 6.32889385129222e-02 
8.62500000000000e-01 5.07722658505274e-01 6.85533186368447e-02 
8.87500000000000e-01 5.05071373789755e-01 7.42442429586189e-02 
9.12500000000000e-01 5.02161831811993e-01 8.02765869900149e-02 
9.37500000000000e-01 4.98982062737792e-01 8.66584654571265e-02 
9.62500000000000e-01 4.95536849394555e-01 9.35357787578880e-02 
9.87500000000000e-01 4.91788814354076e-01 1.00836185683188e-01 
1.01250000000000e+00 4.87720648007905e-01 1.08357302166327e-01 
1.03750000000000e+00 4.83232826464057e-01 1.15906896545186e-01 
1.06250000000000e+00 4.78344818265621e-01 1.23627770994635e-01 
1.08750000000000e+00 4.73010009392543e-01 1.31383334226655e-01 
1.11250000000000e+00 4.67213106408666e-01 1.39057392910554e-01 
1.13750000000000e+00 4.60952565281362e-01 1.46625944073313e-01 
1.16250000000000e+00 4.54202911168703e-01 1.54062896586498e-01 
1.18750000000000e+00 4.46975009881675e-01 1.61396775963270e-01 
1.21250000000000e+00 4.39239284866937e-01 1.68533339760008e-01 
1.23750000000000e+00 4.30878214843048e-01 1.75255396798786e-01 
1.26250000000000e+00 4.21872894227475e-01 1.81399635023636e-01 
1.28750000000000e+00 4.12235478395013e-01 1.86773120444962e-01 
1.31250000000000e+00 4.01970546487638e-01 1.91145664757821e-01 
1.33750000000000e+00 3.91048321693549e-01 1.94284899698711e-01 
1.36250000000000e+00 3.79502715495799e-01 1.96041715307546e-01 
1.38750000000000e+00 3.67396823143252e-01 1.96341198009217e-01 
1.41250000000000e+00 3.54786899086278e-01 1.95175998243477e-01 
1.43750000000000e+00 3.41754337367734e-01 1.92620460096012e-01 
1.46250000000000e+00 3.28381919460769e-01 1.88835246854001e-01 
1.48750000000000e+00 3.14764920414211e-01 1.84038830786241e-01 
1.51250000000000e+00 3.00998499934150e-01 1.78502949468996e-01 
1.53750000000000e+00 2.87339785728576e-01 1.72459690226097e-01 
1.56250000000000e+00 2.73869659830319e-01 1.66180347740074e-01 
1.58750000000000e+00 2.60655346738137e-01 1.59861419404270e-01 
1.61250000000000e+00 2.47752085026774e-01 1.53627744117063e-01 
1.63750000000000e+00 2.35294039840834e-01 1.47514360986940e-01 
1.66250000000000e+00 2.23299986086462e-01 1.41554377671267e-01 
1.68750000000000e+00 2.11767179727916e-01 1.35711888239905e-01 
1.71250000000000e+00 2.00679177197986e-01 1.29934724439360e-01 
1.73750000000000e+00 1.90151058494211e-01 1.24136470277772e-01 
1.76250000000000e+00 1.80162148006987e-01 1.18305001441005e-01 
1.78750000000000e+00 1.70694895197134e-01 1.12431760144840e-01 
1.81250000000000e+00 1.61739275399548e-01 1.06549359897851e-01 
1.83750000000000e+00 1.53290872324411e-01 1.00741645482881e-01 
1.86250000000000e+00 1.45341268271530e-01 9.51274202684036e-02 
1.88750000000000e+00 1.37881234205047e-01 8.98234422083893e-02 
1.91250000000000e+00 1.30896504409058e-01 8.49121519870188e-02 
1.93750000000000e+00 1.24443202139394e-01 8.03724068557374e-02 
1.96250000000000e+00 1.18491169352054e-01 7.61986396300878e-02 
1.98750000000000e+00 1.13014266580120e-01 7.23466213068099e-02 
2.01250000000000e+00 1.07975934020694e-01 6.87466194193058e-02 
2.03750000000000e+00 1.03339832230478e-01 6.53404083124767e-02 
2.06250000000000e+00 9.90786805821244e-02 6.21061637554928e-02 
2.08750000000000e+00 9.51560160666723e-02 5.90350666164697e-02 
2.11250000000000e+00 9.15357742425368e-02 5.60986656707223e-02 
2.13750000000000e+00 8.81363128840753e-02 5.33154317611500e-02 
2.16250000000000e+00 8.49474325710208e-02 5.06726023047743e-02 
2.18750000000000e+00 8.19551171199470e-02 4.81631568015241e-02 
2.21250000000000e+00 7.91557976428149e-02 4.57778657387312e-02 
2.23750000000000e+00 7.65347878938211e-02 4.35308421602215e-02 
2.26250000000000e+00 7.40896491992434e-02 4.14269522880457e-02 
2.28750000000000e+00 7.18107418175045e-02 3.94639087174655e-02 
2.31250000000000e+00 6.96825306042269e-02 3.76373151927974e-02 
2.33750000000000e+00 6.76917039916998e-02 3.59364292772765e-02 
2.36250000000000e+00 6.58169155371160e-02 3.43447612536155e-02 
2.38750000000000e+00 6.40473958098611e-02 3.28391355631006e-02 
2.41250000000000e+00 6.23727590289059e-02 3.14105377152532e-02 
2.43750000000000e+00 6.07928618325184e-02 3.00515924408967e-02 
2.46250000000000e+00 5.93031811594756e-02 2.87666033919773e-02 
2.48750000000000e+00 5.79073814271640e-02 2.75605770178953e-02 
2.51250000000000e+00 5.65993408016793e-02 2.64391908266161e-02 
2.53750000000000e+00 5.53637996749572e-02 2.54038152302083e-02 
2.56250000000000e+00 5.41924027382389e-02 2.44455418294592e-02 
2.58750000000000e+00 5.30771780475447e-02 2.35504385349170e-02 
2.61250000000000e+00 5.20104015308565e-02 2.27021625628840e-02 
2.63750000000000e+00 5.09879381660504e-02 2.18890351363001e-02 
2.66250000000000e+00 5.00094103833753e-02 2.11063009127608e-02 
2.68750000000000e+00 4.90735266335077e-02 2.03569879421320e-02 
2.71250000000000e+00 4.81816726385559e-02 1.96473744647033e-02 
2.73750000000000e+00 4.73318714537010e-02 1.89861881415618e-02 
2.76250000000000e+00 4.65229040325895e-02 1.83746163256858e-02 
2.78750000000000e+00 4.57486037383415e-02 1.78085519727917e-02 
2.81250000000000e+00 4.50060371051745e-02 1.72777183649297e-02 
2.83750000000000e+00 4.42889125394837e-02 1.67750071832026e-02 
2.86250000000000e+00 4.35964336340498e-02 1.62927593825905e-02 
2.88750000000000e+00 4.29264976213445e-02 1.58294970257865e-02 
2.91250000000000e+00 4.22802353618933e-02 1.53873445839948e-02 
2.93750000000000e+00 4.16567878669842e-02 1.49712745820191e-02 
2.96250000000000e+00 4.10556478071739e-02 1.45835819897167e-02 
2.98750000000000e+00 4.04747075825600e-02 1.42240166926691e-02 
3.01250000000000e+00 3.99121064647103e-02 1.38886330381637e-02 
3.03750000000000e+00 3.93657402943449e-02 1.35719228632461e-02 
3.06250000000000e+00 3.88341652116742e-02 1.32688660809021e-02 
3.08750000000000e+00 3.83166815335112e-02 1.29766514020362e-02 
3.11250000000000e+00 3.78130098576233e-02 1.26948378071745e-02 
3.13750000000000e+00 3.73231912190455e-02 1.24251974466665e-02 
3.16250000000000e+00 3.68466757799015e-02 1.21706191695688e-02 
3.18750000000000e+00 3.63830669447584e-02 1.19320690881194e-02 
3.21250000000000e+00 3.59310410175744e-02 1.17082852887959e-02 
3.23750000000000e+00 3.54899015564310e-02 1.14964459577566e-02 
3.26250000000000e+00 3.50586085315940e-02 1.12934028450281e-02 
3.28750000000000e+00 3.46368176060003e-02 1.10964366465443e-02 
3.31250000000000e+00 3.42241024477031e-02 1.09048401951245e-02 
3.33750000000000e+00 3.38203463725225e-02 1.07190712573422e-02 
3.36250000000000e+00 3.34252609234431e-02 1.05398037827208e-02 
3.38750000000000e+00 3.30386839117609e-02 1.03672403078754e-02 
3.41250000000000e+00 3.26600811669685e-02 1.02011212439051e-02 
3.43750000000000e+00 3.22891099738343e-02 1.00405963084047e-02 
3.46250000000000e+00 3.19252790008623e-02 9.88454678281109e-03 
3.48750000000000e+00 3.15683531590782e-02 9.73195385188966e-03 
3.51250000000000e+00 3.12181223339750e-02 9.58259331875640e-03 
3.53750000000000e+00 3.08745392837363e-02 9.43670153836644e-03 
3.56250000000000e+00 3.05374352907668e-02 9.29483306226374e-03 
3.58750000000000e+00 3.02066976494377e-02 9.15799890473694e-03 
3.61250000000000e+00 2.98821783318177e-02 9.02728048725596e-03 
3.63750000000000e+00 2.95636168931652e-02 8.90242909108357e-03 
3.66250000000000e+00 2.92507428681344e-02 8.78199819029668e-03 
3.68750000000000e+00 2.89434548855052e-02 8.66499708228186e-03 
3.71250000000000e+00 2.86415597843906e-02 8.55135782202695e-03 
3.73750000000000e+00 2.83449610609327e-02 8.44126233980813e-03 
3.76250000000000e+00 2.80534740757066e-02 8.33464100992497e-03 
3.78750000000000e+00 2.77669672256111e-02 8.23107192648205e-03 
3.81250000000000e+00 2.74852409970268e-02 8.13027835175298e-03 
3.83750000000000e+00 2.72081042561371e-02 8.03208813014672e-03 
3.86250000000000e+00 2.69353909111845e-02 7.93624025644602e-03 
3.88750000000000e+00 2.66669915053763e-02 7.84247018060256e-03 
3.91250000000000e+00 2.64027485853094e-02 7.75085991859988e-03 
3.93750000000000e+00 2.61426881023993e-02 7.66165585784400e-03 
3.96250000000000e+00 2.58866908456317e-02 7.57501078770709e-03 
3.98750000000000e+00 2.56347096770225e-02 7.49097283419411e-03 
4.01250000000000e+00 2.53866731235638e-02 7.40951664689408e-03 
4.03750000000000e+00 2.51419200970217e-02 7.33066513793252e-03 
4.06250000000000e+00 2.49003307113973e-02 7.25424840960025e-03 
4.08750000000000e+00 2.46619166417466e-02 7.18010908895772e-03 
4.11250000000000e+00 2.44265836553679e-02 7.10816859314726e-03 
4.13750000000000e+00 2.41941740294932e-02 7.03834032104514e-03 
4.16250000000000e+00 2.39646064685376e-02 6.97048148278190e-03 
4.18750000000000e+00 2.37378024048585e-02 6.90449798855016e-03 
4.21250000000000e+00 2.35136751250231e-02 6.84038145444519e-03 
4.23750000000000e+00 2.32922055909805e-02 6.77812980308702e-03 
4.26250000000000e+00 2.30733049384115e-02 6.71774962747613e-03 
4.28750000000000e+00 2.28568936084978e-02 6.65924971339418e-03 
4.31250000000000e+00 2.26428957227197e-02 6.60260859052684e-03 
4.33750000000000e+00 2.24312474999922e-02 6.54777566367259e-03 
4.36250000000000e+00 2.22218793410425e-02 6.49467096734804e-03 
4.38750000000000e+00 2.20147230146320e-02 6.44316870095484e-03 
4.41250000000000e+00 2.18097151709297e-02 6.39315374109699e-03 
4.43750000000000e+00 2.16067804127669e-02 6.34453843500665e-03 
4.46250000000000e+00 2.14059199762560e-02 6.29725055106706e-03 
4.48750000000000e+00 2.12070798995213e-02 6.25125313940793e-03 
4.51250000000000e+00 2.10102088997966e-02 6.20637097076033e-03 
4.53750000000000e+00 2.08152743337154e-02 6.16234243431911e-03 
4.56250000000000e+00 2.06224030718337e-02 6.11906101033058e-03 
4.58750000000000e+00 2.04315578135892e-02 6.07654975376468e-03 
4.61250000000000e+00 2.02427021878483e-02 6.03475220614312e-03 
4.63750000000000e+00 2.00557942619472e-02 5.99357453331013e-03 
4.66250000000000e+00 1.98708118785584e-02 5.95294282835226e-03 
4.68750000000000e+00 1.96877268024829e-02 5.91282613662563e-03 
4.71250000000000e+00 1.95065124410716e-02 5.87320164854401e-03 
4.73750000000000e+00 1.93271291084680e-02 5.83406603643173e-03 
4.76250000000000e+00 1.91495514122276e-02 5.79558336019521e-03 
4.78750000000000e+00 1.89737445354814e-02 5.75804650515701e-03 
4.81250000000000e+00 1.87996656428991e-02 5.72158565537664e-03 
4.83750000000000e+00 1.86272868510568e-02 5.68620100210247e-03 
4.86250000000000e+00 1.84565837702636e-02 5.65189383508669e-03 
4.88750000000000e+00 1.82875146584123e-02 5.61864766908133e-03 
4.91250000000000e+00 1.81200392109765e-02 5.58630323502891e-03 
4.93750000000000e+00 1.79540872809633e-02 5.55458545856160e-03 
4.96250000000000e+00 1.77896396855611e-02 5.52335193234636e-03 
4.98750000000000e+00 1.76266754607584e-02 5.49259157562122e-03 
5.01250000000000e+00 1.74651732750410e-02 5.46229632200376e-03 
5.03750000000000e+00 1.73049667306634e-02 5.43256700524900e-03 
5.06250000000000e+00 1.71460260871099e-02 5.40354164561163e-03 
5.08750000000000e+00 1.69883033884129e-02 5.37523738592363e-03 
5.11250000000000e+00 1.68317652199598e-02 5.34748574529101e-03 
5.13750000000000e+00 1.66763709691636e-02 5.32007552767952e-03 
5.16250000000000e+00 1.65221092098402e-02 5.29291482023508e-03 
5.18750000000000e+00 1.63689945470224e-02 5.26600025715894e-03 
5.21250000000000e+00 1.62170178284376e-02 5.23931690237877e-03 
5.23750000000000e+00 1.60661543758454e-02 5.21283805847451e-03 
5.26250000000000e+00 1.59163941933901e-02 5.18654605883457e-03 
5.28750000000000e+00 1.57677284577472e-02 5.16043605367868e-03 
5.31250000000000e+00 1.56201495753785e-02 5.13450416872432e-03 
5.33750000000000e+00 1.54736332003991e-02 5.10874912717461e-03 
5.36250000000000e+00 1.53281705184711e-02 5.08316734076090e-03 
5.38750000000000e+00 1.51837527032643e-02 5.05775585690116e-03 
5.41250000000000e+00 1.50403712657425e-02 5.03250640009545e-03 
5.43750000000000e+00 1.48980181132477e-02 5.00742121225297e-03 
5.46250000000000e+00 1.47566844363308e-02 4.98252292550305e-03 
5.48750000000000e+00 1.46163610209530e-02 4.95782450473126e-03 
5.51250000000000e+00 1.44770387477724e-02 4.93330950720160e-03 
5.53750000000000e+00 1.43387311768877e-02 4.90894390302127e-03 
5.56250000000000e+00 1.42014311314977e-02 4.88471261710180e-03 
5.58750000000000e+00 1.40651309966948e-02 4.86061596044917e-03 
5.61250000000000e+00 1.39298232368035e-02 4.83665425239007e-03 
5.63750000000000e+00 1.37954934449704e-02 4.81283397138924e-03 
5.66250000000000e+00 1.36621340981059e-02 4.78916656942403e-03 
5.68750000000000e+00 1.35297373888956e-02 4.76565703734439e-03 
5.71250000000000e+00 1.33982955408478e-02 4.74230420693325e-03 
5.73750000000000e+00 1.32678078051337e-02 4.71910022103393e-03 
5.76250000000000e+00 1.31382668190742e-02 4.69603575589689e-03 
5.78750000000000e+00 1.30096654600431e-02 4.67311143433722e-03 
5.81250000000000e+00 1.28819964815558e-02 4.65032414063630e-03 
5.83750000000000e+00 1.27552463986416e-02 4.62766920612636e-03 
5.86250000000000e+00 1.26294084171821e-02 4.60516008124951e-03 
5.88750000000000e+00 1.25044749029005e-02 4.58281330745197e-03 
5.91250000000000e+00 1.23804305556774e-02 4.56063699434624e-03 
5.93750000000000e+00 1.22572199467429e-02 4.53864218358288e-03 
5.96250000000000e+00 1.21348356960265e-02 4.51682712712624e-03 
5.98750000000000e+00 1.20132704869096e-02 4.49518925096847e-03 
6.01250000000000e+00 1.18925170948323e-02 4.47367126822767e-03 
6.03750000000000e+00 1.17723924532558e-02 4.45217547148110e-03 
6.06250000000000e+00 1.16528711739636e-02 4.43062238934100e-03 
6.08750000000000e+00 1.15339538168572e-02 4.40900194751502e-03 
6.11250000000000e+00 1.14156416936276e-02 4.38732386559612e-03 
6.13750000000000e+00 1.12979630158722e-02 4.36560031864348e-03 
6.16250000000000e+00 1.11809183379013e-02 4.34383899245627e-03 
6.18750000000000e+00 1.10645081550438e-02 4.32204126903895e-03 
6.21250000000000e+00 1.09487326803406e-02 4.30019939044137e-03 
6.23750000000000e+00 1.08335930742133e-02 4.27830203188214e-03 
6.26250000000000e+00 1.07190902160582e-02 4.25635665618389e-03 
6.28750000000000e+00 1.06052244981508e-02 4.23437452094884e-03 
6.31250000000000e+00 1.04919961779381e-02 4.21236230288289e-03 
6.33750000000000e+00 1.03794052489254e-02 4.19032267823837e-03 
6.36250000000000e+00 1.02674518664761e-02 4.16824938189523e-03 
6.38750000000000e+00 1.01561364221159e-02 4.14614029055565e-03 
6.41250000000000e+00 1.00454591878130e-02 4.12398246354067e-03 
6.43750000000000e+00 9.93542198793635e-03 4.10175138371228e-03 
6.46250000000000e+00 9.82602639578570e-03 4.07944512382675e-03 
6.48750000000000e+00 9.71727357073710e-03 4.05707362515214e-03 
6.51250000000000e+00 9.60916457932337e-03 4.03464881264108e-03 
6.53750000000000e+00 9.50169979912381e-03 4.01218616925829e-03 
6.56250000000000e+00 9.39487945910244e-03 3.98969148769744e-03 
6.58750000000000e+00 9.28870386977083e-03 3.96716658630911e-03 
6.61250000000000e+00 9.18317317341157e-03 3.94460937588019e-03 
6.63750000000000e+00 9.07829280283033e-03 3.92201313390491e-03 
6.66250000000000e+00 8.97406317854839e-03 3.89938068021206e-03 
6.68750000000000e+00 8.87048448702906e-03 3.87671856681579e-03 
6.71250000000000e+00 8.76755681906457e-03 3.85403656498432e-03 
6.73750000000000e+00 8.66527967761832e-03 3.83134998003701e-03 
6.76250000000000e+00 8.56365234034798e-03 3.80866938817316e-03 
6.78750000000000e+00 8.46267392844454e-03 3.78599935434686e-03 
6.81250000000000e+00 8.36234347648783e-03 3.76334677517911e-03 
6.83750000000000e+00 8.26265795459100e-03 3.74071617305082e-03 
6.86250000000000e+00 8.16361623736825e-03 3.71810274695071e-03 
6.88750000000000e+00 8.06521721494381e-03 3.69550451932766e-03 
6.91250000000000e+00 7.96745984714978e-03 3.67292268111000e-03 
6.93750000000000e+00 7.87031610054792e-03 3.65035914498316e-03 
6.96250000000000e+00 7.77378533579115e-03 3.62781058080689e-03 
6.98750000000000e+00 7.67786689044375e-03 3.60527938226920e-03 
7.01250000000000e+00 7.58255941465135e-03 3.58274047628674e-03 
7.03750000000000e+00 7.48783594322013e-03 3.56014682665401e-03 
7.06250000000000e+00 7.39369869580577e-03 3.53747592363089e-03 
7.08750000000000e+00 7.30014973268533e-03 3.51473501949373e-03 
7.11250000000000e+00 7.20719093595182e-03 3.49179571316203e-03 
7.13750000000000e+00 7.11474669299107e-03 3.46842615992715e-03 
7.16250000000000e+00 7.02283291416626e-03 3.44452153447519e-03 
7.18750000000000e+00 6.93146466748331e-03 3.42010833777000e-03 
7.21250000000000e+00 6.84065653916885e-03 3.39521113754164e-03 
7.23750000000000e+00 6.75042218546025e-03 3.36985329724435e-03 
7.26250000000000e+00 6.66077508416012e-03 3.34404979479527e-03 
7.28750000000000e+00 6.57172840242110e-03 3.31781629858444e-03 
7.31250000000000e+00 6.48329481801595e-03 3.29116787720500e-03 
7.33750000000000e+00 6.39548702346707e-03 3.26411505337346e-03 
7.36250000000000e+00 6.30831721674524e-03 3.23667306731221e-03 
7.38750000000000e+00 6.22179708178283e-03 3.20886120962473e-03 
7.41250000000000e+00 6.13593783164387e-03 3.18072859363368e-03 
7.43750000000000e+00 6.05076153930768e-03 3.15234942725102e-03 
7.46250000000000e+00 5.96627510909842e-03 3.12377095904417e-03 
7.48750000000000e+00 5.88248503570413e-03 3.09500853401088e-03 
7.51250000000000e+00 5.79939745276891e-03 3.06607580573412e-03 
7.53750000000000e+00 5.71701818029458e-03 3.03698558283721e-03 
7.56250000000000e+00 5.63535267919675e-03 3.00775019203011e-03 
7.58750000000000e+00 5.55440609949331e-03 2.97838229348067e-03 
7.61250000000000e+00 5.47418324817860e-03 2.94889501882968e-03 
7.63750000000000e+00 5.39468859161885e-03 2.91930099341528e-03 
7.66250000000000e+00 5.31592625777775e-03 2.88961172542917e-03 
7.68750000000000e+00 5.23790010191899e-03 2.85983864462423e-03 
7.71250000000000e+00 5.16061366437001e-03 2.82999372448355e-03 
7.73750000000000e+00 5.08408285631055e-03 2.80008119717657e-03 
7.76250000000000e+00 5.00831059794130e-03 2.77010626724032e-03 
