Energy(eV)           EEDF(eV^-(3/2))      Anisotropy(eV^-(3/2))
7.23379629629630e-03 2.16880724269190e-01 -2.15274941990813e-03 
2.17013888888889e-02 2.16906885209732e-01 -9.67521056812490e-04 
3.61689814814815e-02 2.16930004574965e-01 -3.18345489228559e-04 
5.06365740740741e-02 2.16950902995784e-01 3.01146631451225e-05 
6.51041666666667e-02 2.16969630624129e-01 2.85893250342168e-04 
7.95717592592593e-02 2.16985882912828e-01 4.97817718796219e-04 
9.40393518518519e-02 2.16999653178570e-01 6.91399952883408e-04 
1.08506944444444e-01 2.17010792660235e-01 8.72039882297306e-04 
1.22974537037037e-01 2.17019228139571e-01 1.04804777938938e-03 
1.37442129629630e-01 2.17024739695835e-01 1.75577954257790e-03 
1.51909722222222e-01 2.17013027369959e-01 2.97289378969029e-03 
1.66377314814815e-01 2.16982223028128e-01 3.64578775649898e-03 
1.80844907407407e-01 2.16946627973803e-01 3.83912233766755e-03 
1.95312500000000e-01 2.16904715861390e-01 4.21301018845875e-03 
2.09780092592593e-01 2.16851758803786e-01 4.60248107341343e-03 
2.24247685185185e-01 2.16791538706247e-01 4.75201449078160e-03 
2.38715277777778e-01 2.16728134095652e-01 4.79427353182611e-03 
2.53182870370370e-01 2.16660930513647e-01 6.12383525138274e-03 
2.67650462962963e-01 2.16543126765548e-01 9.10885556987754e-03 
2.82118055555556e-01 2.16355706585501e-01 1.11963963641964e-02 
2.96585648148148e-01 2.16145839063469e-01 1.15162303186899e-02 
3.11053240740741e-01 2.15933002025157e-01 1.18052041977096e-02 
3.25520833333333e-01 2.15699796597804e-01 1.23322919081414e-02 
3.39988425925926e-01 2.15436572478893e-01 1.22029970995738e-02 
3.54456018518519e-01 2.15195209601871e-01 1.18501393466844e-02 
3.68923611111111e-01 2.14953990991375e-01 1.25110448254947e-02 
3.83391203703704e-01 2.14675129035414e-01 1.48799285811352e-02 
3.97858796296296e-01 2.14314546611744e-01 1.73833695943350e-02 
4.12326388888889e-01 2.13906576171579e-01 1.85020613070351e-02 
4.26793981481482e-01 2.13480507377847e-01 1.93085589800909e-02 
4.41261574074074e-01 2.13021976437972e-01 1.92842073954564e-02 
4.55729166666667e-01 2.12496371071930e-01 1.77828220152971e-02 
4.70196759259259e-01 2.12072311180174e-01 1.63605605000486e-02 
4.84664351851852e-01 2.11690074174345e-01 1.60428029143794e-02 
4.99131944444445e-01 2.11302465855292e-01 1.71302172494165e-02 
5.13599537037037e-01 2.10855754257467e-01 1.93260917178180e-02 
5.28067129629630e-01 2.10348974302345e-01 2.09143265834025e-02 
5.42534722222222e-01 2.09815105557251e-01 2.18647696861258e-02 
5.57002314814815e-01 2.09253415804445e-01 2.18417806426078e-02 
5.71469907407407e-01 2.08641432074457e-01 2.01371353291269e-02 
5.85937500000000e-01 2.08078648682164e-01 1.82990832414045e-02 
6.00405092592593e-01 2.07634034481181e-01 1.80476162043825e-02 
6.14872685185185e-01 2.07167872599488e-01 1.93731263215684e-02 
6.29340277777778e-01 2.06667478239436e-01 2.06188840470773e-02 
6.43807870370370e-01 2.06157807408069e-01 2.12241921651353e-02 
6.58275462962963e-01 2.05648362063084e-01 2.17653639826730e-02 
6.72743055555556e-01 2.05134013374202e-01 2.22183520574112e-02 
6.87210648148148e-01 2.04625213175619e-01 2.12685723490064e-02 
7.01678240740741e-01 2.04041708643724e-01 1.95204205336141e-02 
7.16145833333333e-01 2.03631910289031e-01 1.87853834207053e-02 
7.30613425925926e-01 2.03213967120248e-01 1.97265647168090e-02 
7.45081018518519e-01 2.02773134074714e-01 2.03921256340692e-02 
7.59548611111111e-01 2.02328546188813e-01 2.06884101094523e-02 
7.74016203703704e-01 2.01877953513393e-01 2.10523334252848e-02 
7.88483796296296e-01 2.01420675120760e-01 2.07297143588510e-02 
8.02951388888889e-01 2.00915637907458e-01 1.93394952102230e-02 
8.17418981481482e-01 2.00453660772424e-01 1.80220899074041e-02 
8.31886574074074e-01 2.00044935448354e-01 1.78167241382818e-02 
8.46354166666667e-01 1.99605476722581e-01 1.83029113219214e-02 
8.60821759259259e-01 1.99130095753781e-01 1.87770718224204e-02 
8.75289351851852e-01 1.98622374370564e-01 1.90833715827216e-02 
8.89756944444445e-01 1.98086033413602e-01 1.92510087381548e-02 
9.04224537037037e-01 1.97524101287418e-01 1.87392675885712e-02 
9.18692129629630e-01 1.96913547537676e-01 1.76269399223002e-02 
9.33159722222222e-01 1.96394758994813e-01 1.68942205058028e-02 
9.47627314814815e-01 1.95889484882486e-01 1.69653662505392e-02 
9.62094907407408e-01 1.95371152505432e-01 1.72498373377163e-02 
9.76562500000000e-01 1.94838181440727e-01 1.75036781972395e-02 
9.91030092592593e-01 1.94293773520046e-01 1.76760874032604e-02 
1.00549768518519e+00 1.93739661604039e-01 1.78029967210219e-02 
1.01996527777778e+00 1.93177801441709e-01 1.76578256196412e-02 
1.03443287037037e+00 1.92594478899443e-01 1.71367461484411e-02 
1.04890046296296e+00 1.92042557791086e-01 1.67411274692354e-02 
1.06336805555556e+00 1.91507481212544e-01 1.67758761514919e-02 
1.07783564814815e+00 1.90962316876854e-01 1.69435640109097e-02 
1.09230324074074e+00 1.90408366257544e-01 1.70779224066787e-02 
1.10677083333333e+00 1.89846421887014e-01 1.71927623877920e-02 
1.12123842592593e+00 1.89276890011859e-01 1.73004276570842e-02 
1.13570601851852e+00 1.88699746323614e-01 1.72560156537796e-02 
1.15017361111111e+00 1.88107020980696e-01 1.70517364302302e-02 
1.16464120370370e+00 1.87533596775161e-01 1.69894073555950e-02 
1.17910879629630e+00 1.86955573972302e-01 1.71077046014701e-02 
1.19357638888889e+00 1.86368846936373e-01 1.72343922578684e-02 
1.20804398148148e+00 1.85774287535577e-01 1.73480285740647e-02 
1.22251157407407e+00 1.85175648582270e-01 1.74585335650959e-02 
1.23697916666667e+00 1.84572969185601e-01 1.75060146278006e-02 
1.25144675925926e+00 1.83962811616391e-01 1.74891844453219e-02 
1.26591435185185e+00 1.83360371110459e-01 1.75353521737121e-02 
1.28038194444444e+00 1.82754488860288e-01 1.76492292822792e-02 
1.29484953703704e+00 1.82144338449476e-01 1.77613640410549e-02 
1.30931712962963e+00 1.81530454998880e-01 1.78689987917061e-02 
1.32378472222222e+00 1.80914342300245e-01 1.79774621356800e-02 
1.33825231481481e+00 1.80295940653514e-01 1.80715945744550e-02 
1.35271990740741e+00 1.79674122373456e-01 1.81370301540077e-02 
1.36718750000000e+00 1.79052235463042e-01 1.82078044608013e-02 
1.38165509259259e+00 1.78430878586898e-01 1.83124751917737e-02 
1.39612268518519e+00 1.77806939593997e-01 1.84327574527718e-02 
1.41059027777778e+00 1.77180422888168e-01 1.85528065979343e-02 
1.42505787037037e+00 1.76551397346519e-01 1.86708133679874e-02 
1.43952546296296e+00 1.75919989453795e-01 1.87774024129713e-02 
1.45399305555556e+00 1.75285688685527e-01 1.88673587813085e-02 
1.46846064814815e+00 1.74650606801490e-01 1.89579252961782e-02 
1.48292824074074e+00 1.74014638488319e-01 1.90594179264347e-02 
1.49739583333333e+00 1.73376752394075e-01 1.91631858363480e-02 
1.51186342592593e+00 1.72737062468402e-01 1.92646200918302e-02 
1.52633101851852e+00 1.72095643584849e-01 1.93645182979139e-02 
1.54079861111111e+00 1.71452556795816e-01 1.94589341362068e-02 
1.55526620370370e+00 1.70807500566145e-01 1.95458769379155e-02 
1.56973379629630e+00 1.70161657327224e-01 1.96340379999184e-02 
1.58420138888889e+00 1.69514751133193e-01 1.97273607533591e-02 
1.59866898148148e+00 1.68866398246446e-01 1.98215388828911e-02 
1.61313657407407e+00 1.68216656031179e-01 1.99145952379020e-02 
1.62760416666667e+00 1.67565582926138e-01 2.00060308864862e-02 
1.64207175925926e+00 1.66913184630685e-01 2.00938896007388e-02 
1.65653935185185e+00 1.66259485742124e-01 2.01784919551832e-02 
1.67100694444444e+00 1.65604991663559e-01 2.02637327050342e-02 
1.68547453703704e+00 1.64949519862326e-01 2.03503482007186e-02 
1.69994212962963e+00 1.64292983366638e-01 2.04363362306707e-02 
1.71440972222222e+00 1.63635734363265e-01 2.05209254735627e-02 
1.72887731481482e+00 1.62978139700745e-01 2.06039949238626e-02 
1.74334490740741e+00 1.62320270512494e-01 2.06855154381776e-02 
1.75781250000000e+00 1.61662196531097e-01 2.07655053684204e-02 
1.77228009259259e+00 1.61003986383288e-01 2.08439862241512e-02 
1.78674768518519e+00 1.60345707308130e-01 2.09209810897832e-02 
1.80121527777778e+00 1.59687425381834e-01 2.09964186761559e-02 
1.81568287037037e+00 1.59029212697077e-01 2.10700625161357e-02 
1.83015046296296e+00 1.58371150293196e-01 2.11417010008920e-02 
1.84461805555556e+00 1.57713320406126e-01 2.12113132899025e-02 
1.85908564814815e+00 1.57055802997097e-01 2.12789600775389e-02 
1.87355324074074e+00 1.56398675733174e-01 2.13446830201055e-02 
1.88802083333333e+00 1.55742014556887e-01 2.14085176202878e-02 
1.90248842592593e+00 1.55085893537826e-01 2.14705232024427e-02 
1.91695601851852e+00 1.54429969174352e-01 2.15307143171093e-02 
1.93142361111111e+00 1.53774106933729e-01 2.15890960825352e-02 
1.94589120370370e+00 1.53118373420843e-01 2.16456940038725e-02 
1.96035879629630e+00 1.52462833807897e-01 2.17005153308546e-02 
1.97482638888889e+00 1.51807549443632e-01 2.17535278976775e-02 
1.98929398148148e+00 1.51152583000019e-01 2.18047070629041e-02 
2.00376157407407e+00 1.50498000166730e-01 2.18540717189841e-02 
2.01822916666667e+00 1.49843865567756e-01 2.19016474413586e-02 
2.03269675925926e+00 1.49190242553264e-01 2.19474447819941e-02 
2.04716435185185e+00 1.48537193524224e-01 2.19914835887982e-02 
2.06163194444444e+00 1.47884779471975e-01 2.20337921736140e-02 
2.07609953703704e+00 1.47233060136527e-01 2.20743984412856e-02 
2.09056712962963e+00 1.46582093893159e-01 2.21133340515269e-02 
2.10503472222222e+00 1.45931937660398e-01 2.21506370847924e-02 
2.11950231481481e+00 1.45282081757489e-01 2.21862679855695e-02 
2.13396990740741e+00 1.44632480338082e-01 2.22202023636977e-02 
2.14843750000000e+00 1.43983187965606e-01 2.22524636961271e-02 
2.16290509259259e+00 1.43334258035478e-01 2.22830792167814e-02 
2.17737268518519e+00 1.42685742890113e-01 2.23120699955976e-02 
2.19184027777778e+00 1.42037694122796e-01 2.23394423551987e-02 
2.20630787037037e+00 1.41390163126089e-01 2.23651454583598e-02 
2.22077546296296e+00 1.40743131024542e-01 2.23890754519467e-02 
2.23524305555556e+00 1.40096649893934e-01 2.24111721793080e-02 
2.24971064814815e+00 1.39450777310669e-01 2.24314174742514e-02 
2.26417824074074e+00 1.38805570364497e-01 2.24498110579754e-02 
2.27864583333333e+00 1.38161085245678e-01 2.24663796122955e-02 
2.29311342592593e+00 1.37517376854101e-01 2.24811573042882e-02 
2.30758101851852e+00 1.36874499598254e-01 2.24941670968100e-02 
2.32204861111111e+00 1.36232540322121e-01 2.25054269687687e-02 
2.33651620370370e+00 1.35591551012281e-01 2.25149653060969e-02 
2.35098379629630e+00 1.34951582385284e-01 2.25228125556988e-02 
2.36545138888889e+00 1.34312684063618e-01 2.25289952815566e-02 
2.37991898148148e+00 1.33674904638245e-01 2.25335439428280e-02 
2.39438657407407e+00 1.33038291377922e-01 2.25364877932958e-02 
2.40885416666667e+00 1.32403049093626e-01 2.25377922668036e-02 
2.42332175925926e+00 1.31770483100048e-01 2.25374787317336e-02 
2.43778935185185e+00 1.31140638068815e-01 2.25356223770368e-02 
2.45225694444444e+00 1.30513557387879e-01 2.25322476790902e-02 
2.46672453703704e+00 1.29889283222644e-01 2.25273777502251e-02 
2.48119212962963e+00 1.29267856555356e-01 2.25210369227894e-02 
2.49565972222222e+00 1.28649317099568e-01 2.25132639155094e-02 
2.51012731481482e+00 1.28033403121007e-01 2.25041301789028e-02 
2.52459490740741e+00 1.27418952175366e-01 2.24936314704309e-02 
2.53906250000000e+00 1.26806002925650e-01 2.24817205708536e-02 
2.55353009259259e+00 1.26194593038968e-01 2.24684232769089e-02 
2.56799768518519e+00 1.25584759286783e-01 2.24537633963737e-02 
2.58246527777778e+00 1.24976537561007e-01 2.24377722322123e-02 
2.59693287037037e+00 1.24369962433093e-01 2.24204879099414e-02 
2.61140046296296e+00 1.23765098374483e-01 2.24019361511037e-02 
2.62586805555556e+00 1.23162054921663e-01 2.23821395178096e-02 
2.64033564814815e+00 1.22560863559599e-01 2.23611259325784e-02 
2.65480324074074e+00 1.21961554942704e-01 2.23389171247152e-02 
2.66927083333333e+00 1.21364158935804e-01 2.23155341099057e-02 
2.68373842592593e+00 1.20768704622350e-01 2.22909989354237e-02 
2.69820601851852e+00 1.20175220250135e-01 2.22653417231881e-02 
2.71267361111111e+00 1.19583733057459e-01 2.22386114884466e-02 
2.72714120370370e+00 1.18994268569483e-01 2.22108610840067e-02 
2.74160879629630e+00 1.18406850587871e-01 2.21821223712959e-02 
2.75607638888889e+00 1.17821502226818e-01 2.21524130176763e-02 
2.77054398148148e+00 1.17238245985548e-01 2.21217494823871e-02 
2.78501157407407e+00 1.16657103758958e-01 2.20901418669124e-02 
2.79947916666667e+00 1.16078097185004e-01 2.20575996038143e-02 
2.81394675925926e+00 1.15500932119335e-01 2.20241387742064e-02 
2.82841435185185e+00 1.14925266820944e-01 2.19897396476637e-02 
2.84288194444444e+00 1.14351127129750e-01 2.19543423825835e-02 
2.85734953703704e+00 1.13778538681305e-01 2.19179034337483e-02 
2.87181712962963e+00 1.13207527552898e-01 2.18804177203921e-02 
2.88628472222222e+00 1.12638119203304e-01 2.18419018352168e-02 
2.90075231481482e+00 1.12070338657838e-01 2.18023692787517e-02 
2.91521990740741e+00 1.11504218265624e-01 2.17618384751689e-02 
2.92968750000000e+00 1.10939788161319e-01 2.17203321294692e-02 
2.94415509259259e+00 1.10377071481205e-01 2.16778708121923e-02 
2.95862268518519e+00 1.09816090780051e-01 2.16344718040573e-02 
2.97309027777778e+00 1.09256868114430e-01 2.15901515210789e-02 
2.98755787037037e+00 1.08699425001735e-01 2.15449318059965e-02 
3.00202546296296e+00 1.08143782179895e-01 2.14988427055356e-02 
3.01649305555556e+00 1.07589938942676e-01 2.14519118719027e-02 
3.03096064814815e+00 1.07037902901574e-01 2.14041835893554e-02 
3.04542824074074e+00 1.06487688545026e-01 2.13557510445623e-02 
3.05989583333333e+00 1.05939310182364e-01 2.13067030148312e-02 
3.07436342592593e+00 1.05392780507139e-01 2.12570744070578e-02 
3.08883101851852e+00 1.04848111909822e-01 2.12068732526924e-02 
3.10329861111111e+00 1.04305316572984e-01 2.11561096259628e-02 
3.11776620370370e+00 1.03764398382633e-01 2.11048007023178e-02 
3.13223379629630e+00 1.03225365647566e-01 2.10529629583452e-02 
3.14670138888889e+00 1.02688229221116e-01 2.10006090992248e-02 
3.16116898148148e+00 1.02152999606919e-01 2.09477506639641e-02 
3.17563657407407e+00 1.01619686974239e-01 2.08944004085950e-02 
3.19010416666667e+00 1.01088301063520e-01 2.08405776299751e-02 
3.20457175925926e+00 1.00558850954959e-01 2.07863042690712e-02 
3.21903935185185e+00 1.00031904391258e-01 2.07316007138386e-02 
3.23350694444444e+00 9.95075914547736e-02 2.06765049346827e-02 
3.24797453703704e+00 9.89859184376813e-02 2.06209601983866e-02 
3.26244212962963e+00 9.84668914018082e-02 2.05649160514077e-02 
3.27690972222222e+00 9.79505167608010e-02 2.05083684951411e-02 
3.29137731481482e+00 9.74368006090577e-02 2.04513246259346e-02 
3.30584490740741e+00 9.69257488178120e-02 2.03938251468975e-02 
3.32031250000000e+00 9.64163814997273e-02 2.03359463044519e-02 
3.33478009259259e+00 9.59086045121133e-02 2.02776293575925e-02 
3.34924768518519e+00 9.54024282985175e-02 2.02188771819536e-02 
3.36371527777778e+00 9.48978630173840e-02 2.01597004469499e-02 
3.37818287037037e+00 9.43949185513781e-02 2.01001084442903e-02 
3.39265046296296e+00 9.38936045796967e-02 2.00401075018842e-02 
3.40711805555556e+00 9.33939306475922e-02 1.99797073134936e-02 
3.42158564814815e+00 9.28958451919816e-02 1.99189318236123e-02 
3.43605324074074e+00 9.23993558236124e-02 1.98578201976386e-02 
3.45052083333333e+00 9.19044687823711e-02 1.97964338512299e-02 
3.46498842592593e+00 9.14111898127718e-02 1.97348114168770e-02 
3.47945601851852e+00 9.09195243092255e-02 1.96729616331464e-02 
3.49392361111111e+00 9.04294775788504e-02 1.96108869831070e-02 
3.50839120370370e+00 8.99410541072669e-02 1.95485895936405e-02 
3.52285879629630e+00 8.94542501661426e-02 1.94860729737740e-02 
3.53732638888889e+00 8.89690709214891e-02 1.94233414963989e-02 
3.55179398148148e+00 8.84855213647209e-02 1.93604017302158e-02 
3.56626157407407e+00 8.80036063242797e-02 1.92972599718462e-02 
3.58072916666667e+00 8.75233304671664e-02 1.92339255121061e-02 
3.59519675925926e+00 8.70446981233946e-02 1.91704134032246e-02 
3.60966435185185e+00 8.65677098964225e-02 1.91067411077459e-02 
3.62413194444445e+00 8.60923530060423e-02 1.90429417345225e-02 
3.63859953703704e+00 8.56186308676117e-02 1.89790572422589e-02 
3.65306712962963e+00 8.51465456363927e-02 1.89151050922305e-02 
3.66753472222222e+00 8.46760988038985e-02 1.88510856568591e-02 
3.68200231481482e+00 8.42072917594203e-02 1.87870014475986e-02 
3.69646990740741e+00 8.37401258765459e-02 1.87228542530134e-02 
3.71093750000000e+00 8.32745200463843e-02 1.86586553006400e-02 
3.72540509259259e+00 8.28102372265387e-02 1.85944092986236e-02 
3.73987268518519e+00 8.23472811791846e-02 1.85300792490638e-02 
3.75434027777778e+00 8.18856562330638e-02 1.84656512199139e-02 
3.76880787037037e+00 8.14253668652833e-02 1.84011248492355e-02 
3.78327546296296e+00 8.09664174321020e-02 1.83365051290814e-02 
3.79774305555556e+00 8.05088121661728e-02 1.82718122118573e-02 
3.81221064814815e+00 8.00525736961868e-02 1.82071398778429e-02 
3.82667824074074e+00 7.95977379427157e-02 1.81426634529997e-02 
3.84114583333333e+00 7.91442976149480e-02 1.80785432349236e-02 
3.85561342592593e+00 7.86922432861315e-02 1.80148551992202e-02 
3.87008101851852e+00 7.82415650416064e-02 1.79516144393286e-02 
3.88454861111111e+00 7.77922530657946e-02 1.78888165635256e-02 
3.89901620370370e+00 7.73442976365320e-02 1.78264577871791e-02 
3.91348379629630e+00 7.68976697322696e-02 1.77645333071577e-02 
3.92795138888889e+00 7.64523346665781e-02 1.77030651601971e-02 
3.94241898148148e+00 7.60082819545269e-02 1.76421144752246e-02 
3.95688657407407e+00 7.55654992145108e-02 1.75817239506810e-02 
3.97135416666667e+00 7.51239737358751e-02 1.75218961357957e-02 
3.98582175925926e+00 7.46836929630671e-02 1.74626224598790e-02 
4.00028935185185e+00 7.42446445823051e-02 1.74038154327960e-02 
4.01475694444444e+00 7.38069365452110e-02 1.73452722453559e-02 
4.02922453703704e+00 7.33706725175258e-02 1.72869138397236e-02 
4.04369212962963e+00 7.29358484185288e-02 1.72288444354092e-02 
4.05815972222222e+00 7.25024555193451e-02 1.71711232081035e-02 
4.07262731481481e+00 7.20704852362280e-02 1.71137429147435e-02 
4.08709490740741e+00 7.16399290984082e-02 1.70566993140382e-02 
4.10156250000000e+00 7.12107787365220e-02 1.70000108609520e-02 
4.11603009259259e+00 7.07827004443835e-02 1.69437237986928e-02 
4.13049768518519e+00 7.03554782558804e-02 1.68877762069780e-02 
4.14496527777778e+00 6.99291089866773e-02 1.68320436596735e-02 
4.15943287037037e+00 6.95035920784572e-02 1.67764725169001e-02 
4.17390046296296e+00 6.90789270649808e-02 1.67210596371192e-02 
4.18836805555556e+00 6.86551131745117e-02 1.66657906850318e-02 
4.20283564814815e+00 6.82321466196491e-02 1.66106282987612e-02 
4.21730324074074e+00 6.78103877048162e-02 1.65555505711598e-02 
4.23177083333333e+00 6.73899904127884e-02 1.65006123985613e-02 
4.24623842592593e+00 6.69709500350610e-02 1.64458351614375e-02 
4.26070601851852e+00 6.65532628231371e-02 1.63912164618682e-02 
4.27517361111111e+00 6.61369248585051e-02 1.63367588991561e-02 
4.28964120370370e+00 6.57219322628879e-02 1.62824599511350e-02 
4.30410879629630e+00 6.53082812494334e-02 1.62282969924900e-02 
4.31857638888889e+00 6.48959768390292e-02 1.61742549041371e-02 
4.33304398148148e+00 6.44850180699238e-02 1.61203976710718e-02 
4.34751157407407e+00 6.40753988718809e-02 1.60668153402283e-02 
4.36197916666667e+00 6.36671114988623e-02 1.60135383205454e-02 
4.37644675925926e+00 6.32601483077404e-02 1.59605627281918e-02 
4.39091435185185e+00 6.28545017505269e-02 1.59078849525126e-02 
4.40538194444444e+00 6.24501643680746e-02 1.58554111195906e-02 
4.41984953703704e+00 6.20471150219147e-02 1.58029897196454e-02 
4.43431712962963e+00 6.16453514395035e-02 1.57505830604493e-02 
4.44878472222222e+00 6.12448726508495e-02 1.56982102954910e-02 
4.46325231481482e+00 6.08456782234760e-02 1.56458682345076e-02 
4.47771990740741e+00 6.04477676563392e-02 1.55935584684501e-02 
4.49218750000000e+00 6.00511404343015e-02 1.55412816150987e-02 
