Energy(eV)           EEDF(eV^-(3/2))      Anisotropy(eV^-(3/2))
8.68055555555556e-03 9.35721662417339e-01 3.97255363518457e-02 
2.60416666666667e-02 9.32803413643252e-01 3.23304887932591e-02 
4.34027777777778e-02 9.27608342368964e-01 6.24190315928271e-02 
6.07638888888889e-02 9.20922341408381e-01 8.69290113501524e-02 
7.81250000000000e-02 9.13616850667492e-01 1.04074712264805e-01 
9.54861111111111e-02 9.06019141738306e-01 1.15237567690689e-01 
1.12847222222222e-01 8.98550677362159e-01 1.21942006119808e-01 
1.30208333333333e-01 8.91297528985035e-01 1.25958300297432e-01 
1.47569444444444e-01 8.84119452591115e-01 1.28844921921262e-01 
1.64930555555556e-01 8.77113069060305e-01 1.31165385868694e-01 
1.82291666666667e-01 8.70442199149384e-01 1.32354214775514e-01 
1.99652777777778e-01 8.64037193728394e-01 1.32842171648967e-01 
2.17013888888889e-01 8.57822495174818e-01 1.33340532858120e-01 
2.34375000000000e-01 8.51721834513454e-01 1.33697441201021e-01 
2.51736111111111e-01 8.45744285116789e-01 1.33942857675355e-01 
2.69097222222222e-01 8.39936386728427e-01 1.34984906153019e-01 
2.86458333333333e-01 8.34253491037756e-01 1.36504098219648e-01 
3.03819444444445e-01 8.28726285386432e-01 1.35841733351290e-01 
3.21180555555556e-01 8.23405311012321e-01 1.32544331048103e-01 
3.38541666666667e-01 8.18272915224339e-01 1.28409954190389e-01 
3.55902777777778e-01 8.13402871317573e-01 1.24108589634350e-01 
3.73263888888889e-01 8.08731410469740e-01 1.19912515297635e-01 
3.90625000000000e-01 8.04235593131294e-01 1.16881166184675e-01 
4.07986111111111e-01 7.99833843580100e-01 1.15000585305074e-01 
4.25347222222222e-01 7.95507690953462e-01 1.12792557906338e-01 
4.42708333333333e-01 7.91288646692690e-01 1.09827799043959e-01 
4.60069444444445e-01 7.87103090331548e-01 1.06449350018850e-01 
4.77430555555556e-01 7.83148156495731e-01 1.03458355559263e-01 
4.94791666666667e-01 7.79293613337293e-01 1.01287489788181e-01 
5.12152777777778e-01 7.75517848042673e-01 1.00098884875624e-01 
5.29513888888889e-01 7.71767837830809e-01 9.98841596783864e-02 
5.46875000000000e-01 7.68028120733781e-01 9.94485471368846e-02 
5.64236111111111e-01 7.64328403735620e-01 9.79714630144603e-02 
5.81597222222222e-01 7.60599260166737e-01 9.59412488343586e-02 
5.98958333333333e-01 7.57069918316744e-01 9.47061644657854e-02 
6.16319444444445e-01 7.53568631877809e-01 9.48362179309083e-02 
6.33680555555556e-01 7.50063010195740e-01 9.56933066816293e-02 
6.51041666666667e-01 7.46538767605578e-01 9.65242255964041e-02 
6.68402777777778e-01 7.43012611524485e-01 9.72311334324902e-02 
6.85763888888889e-01 7.39477338667789e-01 9.74789440125155e-02 
7.03125000000000e-01 7.35862644254051e-01 9.72539821968407e-02 
7.20486111111111e-01 7.32367910250962e-01 9.79400840915862e-02 
7.37847222222222e-01 7.28814619843960e-01 9.97228895653098e-02 
7.55208333333333e-01 7.25183518765178e-01 1.01842368083988e-01 
7.72569444444445e-01 7.21469120680594e-01 1.04124618270488e-01 
7.89930555555556e-01 7.17664655817842e-01 1.06169093922814e-01 
8.07291666666667e-01 7.13695069471618e-01 1.07848894213464e-01 
8.24652777777778e-01 7.09709985647323e-01 1.10227036512681e-01 
8.42013888888889e-01 7.05604512129233e-01 1.13616055311488e-01 
8.59375000000000e-01 7.01328234414188e-01 1.17567324660815e-01 
8.76736111111111e-01 6.96861668245419e-01 1.21884522165916e-01 
8.94097222222222e-01 6.92192029560073e-01 1.26347259110228e-01 
9.11458333333334e-01 6.87293214132137e-01 1.30763661959977e-01 
9.28819444444445e-01 6.82189572269739e-01 1.35398952041918e-01 
9.46180555555556e-01 6.76930670260538e-01 1.40670366037139e-01 
9.63541666666667e-01 6.71439893717899e-01 1.46431038411606e-01 
9.80902777777778e-01 6.65703219954547e-01 1.52480215284553e-01 
9.98263888888889e-01 6.59709311016230e-01 1.58725344545514e-01 
1.01562500000000e+00 6.53419449333094e-01 1.64997801248216e-01 
1.03298611111111e+00 6.46756096134514e-01 1.71149107877946e-01 
1.05034722222222e+00 6.39750603214041e-01 1.77353268942615e-01 
1.06770833333333e+00 6.32415685348392e-01 1.83742026122770e-01 
1.08506944444444e+00 6.24704129452546e-01 1.90157329869334e-01 
1.10243055555556e+00 6.16609091732039e-01 1.96472231351847e-01 
1.11979166666667e+00 6.08134525736215e-01 2.02666317947254e-01 
1.13715277777778e+00 5.99279412106889e-01 2.08657325288199e-01 
1.15451388888889e+00 5.90014582961982e-01 2.14401968458354e-01 
1.17187500000000e+00 5.80402665964639e-01 2.20039293779492e-01 
1.18923611111111e+00 5.70403726713694e-01 2.25493248277381e-01 
1.20659722222222e+00 5.60018331710382e-01 2.30639290203414e-01 
1.22395833333333e+00 5.49171722118264e-01 2.35374472475532e-01 
1.24131944444444e+00 5.37852341105413e-01 2.39602937829919e-01 
1.25868055555556e+00 5.26069772006024e-01 2.43259863014728e-01 
1.27604166666667e+00 5.13855278966676e-01 2.46292232943801e-01 
1.29340277777778e+00 5.01214625986482e-01 2.48590038241285e-01 
1.31076388888889e+00 4.88167375634628e-01 2.50053380295359e-01 
1.32812500000000e+00 4.74707142018628e-01 2.50610626472172e-01 
1.34548611111111e+00 4.60868481374625e-01 2.50208777566488e-01 
1.36284722222222e+00 4.46686801579566e-01 2.48830844889980e-01 
1.38020833333333e+00 4.32224672665620e-01 2.46497907354860e-01 
1.39756944444444e+00 4.17521922892785e-01 2.43233799368109e-01 
1.41493055555556e+00 4.02633450275541e-01 2.39075368101170e-01 
1.43229166666667e+00 3.87614950252758e-01 2.34089266036891e-01 
1.44965277777778e+00 3.72521615997562e-01 2.28360254977543e-01 
1.46701388888889e+00 3.57416861041513e-01 2.21991450875091e-01 
1.48437500000000e+00 3.42358833642144e-01 2.15102895405722e-01 
1.50173611111111e+00 3.27408449623188e-01 2.07827081616458e-01 
1.51909722222222e+00 3.12689383919309e-01 2.00274868838844e-01 
1.53645833333333e+00 2.98288789286702e-01 1.92568190973537e-01 
1.55381944444444e+00 2.84253713159109e-01 1.84826664058385e-01 
1.57118055555556e+00 2.70610415121123e-01 1.77151957357066e-01 
1.58854166666667e+00 2.57388084165130e-01 1.69627708499648e-01 
1.60590277777778e+00 2.44605032679958e-01 1.62324318900101e-01 
1.62326388888889e+00 2.32319756146075e-01 1.55263461936309e-01 
1.64062500000000e+00 2.20542885611314e-01 1.48465057177189e-01 
1.65798611111111e+00 2.09261075357794e-01 1.41927961921291e-01 
1.67534722222222e+00 1.98459068881338e-01 1.35638546342593e-01 
1.69270833333333e+00 1.88123331922539e-01 1.29573300837660e-01 
1.71006944444444e+00 1.78234895923632e-01 1.23715745775438e-01 
1.72743055555556e+00 1.68846074481810e-01 1.18018347494280e-01 
1.74479166666667e+00 1.59931163032717e-01 1.12466450886235e-01 
1.76215277777778e+00 1.51469396937014e-01 1.07042189361880e-01 
1.77951388888889e+00 1.43444188691784e-01 1.01740811025153e-01 
1.79687500000000e+00 1.35838995165099e-01 9.65681546485775e-02 
1.81423611111111e+00 1.28639432425018e-01 9.15435811926354e-02 
1.83159722222222e+00 1.21834725410687e-01 8.66909591425268e-02 
1.84895833333333e+00 1.15408249125138e-01 8.20384413872072e-02 
1.86631944444444e+00 1.09347738291790e-01 7.76128896046277e-02 
1.88368055555556e+00 1.03637464177087e-01 7.34348850229295e-02 
1.90104166666667e+00 9.82608094037591e-02 6.95203609605284e-02 
1.91840277777778e+00 9.32272893352403e-02 6.58666325292837e-02 
1.93576388888889e+00 8.85346903473395e-02 6.24622877523372e-02 
1.95312500000000e+00 8.41606805702656e-02 5.92921866190460e-02 
1.97048611111111e+00 8.00866810277871e-02 5.63323319802116e-02 
1.98784722222222e+00 7.62908879983551e-02 5.35609024994077e-02 
2.00520833333333e+00 7.27578709243076e-02 5.09571319827962e-02 
2.02256944444445e+00 6.94680573936988e-02 4.85048254353952e-02 
2.03993055555556e+00 6.64034929572806e-02 4.61888470939793e-02 
2.05729166666667e+00 6.35476880801467e-02 4.39991775744636e-02 
2.07465277777778e+00 6.08834333707302e-02 4.19279394726131e-02 
2.09201388888889e+00 5.83943352314433e-02 3.99668121194890e-02 
2.10937500000000e+00 5.60665816518954e-02 3.81022326252143e-02 
2.12673611111111e+00 5.38644961412480e-02 3.63352250584800e-02 
2.14409722222222e+00 5.17807035118645e-02 3.46532566000918e-02 
2.16145833333333e+00 4.98090143423207e-02 3.30489911803417e-02 
2.17881944444445e+00 4.79427673074547e-02 3.15178990040709e-02 
2.19618055555556e+00 4.61809115729358e-02 3.00563254508946e-02 
2.21354166666667e+00 4.45175684918988e-02 2.86647592107769e-02 
2.23090277777778e+00 4.29459480278076e-02 2.73455151597936e-02 
2.24826388888889e+00 4.14638131870091e-02 2.60986391417440e-02 
2.26562500000000e+00 4.00663477118478e-02 2.49252245277374e-02 
2.28298611111111e+00 3.87490946243842e-02 2.38261171948578e-02 
2.30034722222222e+00 3.75068343843881e-02 2.27985563674070e-02 
2.31770833333333e+00 3.63315288873898e-02 2.18377535914134e-02 
2.33506944444445e+00 3.52179967355287e-02 2.09357417726393e-02 
2.35243055555556e+00 3.41593499329250e-02 2.00851943469761e-02 
2.36979166666667e+00 3.31512619364295e-02 1.92797793531626e-02 
2.38715277777778e+00 3.21901070165637e-02 1.85141024559260e-02 
2.40451388888889e+00 3.12727048881109e-02 1.77829585290840e-02 
2.42187500000000e+00 3.03977412917031e-02 1.70836519016765e-02 
2.43923611111111e+00 2.95642383001048e-02 1.64142418040780e-02 
2.45659722222222e+00 2.87705650151286e-02 1.57758911067318e-02 
2.47395833333333e+00 2.80173316734003e-02 1.51706493770346e-02 
2.49131944444445e+00 2.73018659598048e-02 1.46004340671009e-02 
2.50868055555556e+00 2.66229991130825e-02 1.40645918941521e-02 
2.52604166666667e+00 2.59750836759827e-02 1.35634848668367e-02 
2.54340277777778e+00 2.53552780231843e-02 1.30936358023462e-02 
2.56076388888889e+00 2.47616038808354e-02 1.26531093002232e-02 
2.57812500000000e+00 2.41917123353386e-02 1.22376052953418e-02 
2.59548611111111e+00 2.36424035765010e-02 1.18421495979632e-02 
2.61284722222222e+00 2.31133311696316e-02 1.14626893807416e-02 
2.63020833333333e+00 2.26023808598970e-02 1.10962256419430e-02 
2.64756944444445e+00 2.21093053649925e-02 1.07407683441689e-02 
2.66493055555556e+00 2.16342144769412e-02 1.03966098326105e-02 
2.68229166666667e+00 2.11762800522165e-02 1.00640814514274e-02 
2.69965277777778e+00 2.07356933713790e-02 9.74517334515259e-03 
2.71701388888889e+00 2.03124958496814e-02 9.44187840942542e-03 
2.73437500000000e+00 1.99051559407670e-02 9.15516883404137e-03 
2.75173611111111e+00 1.95136174119977e-02 8.88547188253867e-03 
2.76909722222222e+00 1.91363465988931e-02 8.63202690526699e-03 
2.78645833333333e+00 1.87719506416765e-02 8.39251690868950e-03 
2.80381944444445e+00 1.84197639487300e-02 8.16499018922269e-03 
2.82118055555556e+00 1.80778418943841e-02 7.94717450014744e-03 
2.83854166666667e+00 1.77453520073131e-02 7.73698558754423e-03 
2.85590277777778e+00 1.74223073424786e-02 7.53321132652832e-03 
2.87326388888889e+00 1.71079143329806e-02 7.33506042469897e-03 
2.89062500000000e+00 1.68024040474502e-02 7.14275806205835e-03 
2.90798611111111e+00 1.65056980042253e-02 6.95721315219213e-03 
2.92534722222222e+00 1.62174288869553e-02 6.77905558159508e-03 
2.94270833333333e+00 1.59376097328109e-02 6.60915375514121e-03 
2.96006944444445e+00 1.56657777364766e-02 6.44780392771125e-03 
2.97743055555556e+00 1.54013577342879e-02 6.29476926427863e-03 
2.99479166666667e+00 1.51440555317391e-02 6.14951790255953e-03 
3.01215277777778e+00 1.48930480482274e-02 6.01097485069568e-03 
3.02951388888889e+00 1.46480144858764e-02 5.87801588219178e-03 
3.04687500000000e+00 1.44086768930207e-02 5.74972936186029e-03 
3.06423611111111e+00 1.41746211220854e-02 5.62514297803943e-03 
3.08159722222222e+00 1.39457640712061e-02 5.50371744399466e-03 
3.09895833333333e+00 1.37220410171031e-02 5.38497689654783e-03 
3.11631944444445e+00 1.35033178143842e-02 5.26885345611859e-03 
3.13368055555556e+00 1.32896774167629e-02 5.15618889124393e-03 
3.15104166666667e+00 1.30809476268826e-02 5.04769554069012e-03 
3.16840277777778e+00 1.28769328236017e-02 4.94349754590441e-03 
3.18576388888889e+00 1.26774956670813e-02 4.84351282736227e-03 
3.20312500000000e+00 1.24822960031428e-02 4.74744838021076e-03 
3.22048611111111e+00 1.22911710179163e-02 4.65501297031324e-03 
3.23784722222222e+00 1.21039518494162e-02 4.56569538398630e-03 
3.25520833333333e+00 1.19203955981462e-02 4.47853389783260e-03 
3.27256944444445e+00 1.17404240782712e-02 4.39283844381424e-03 
3.28993055555556e+00 1.15639733522394e-02 4.30836996803458e-03 
3.30729166666667e+00 1.13909739909740e-02 4.22512107498227e-03 
3.32465277777778e+00 1.12214035810396e-02 4.14323748102693e-03 
3.34201388888889e+00 1.10552179193787e-02 4.06268308381673e-03 
3.35937500000000e+00 1.08923523955649e-02 3.98337736156449e-03 
3.37673611111111e+00 1.07327919805362e-02 3.90537432158087e-03 
3.39409722222222e+00 1.05764485930659e-02 3.82863431097873e-03 
3.41145833333333e+00 1.04232354345706e-02 3.75316789705334e-03 
3.42881944444445e+00 1.02730875362543e-02 3.67907143023810e-03 
3.44618055555556e+00 1.01258841478963e-02 3.60619824959244e-03 
3.46354166666667e+00 9.98156855008397e-03 3.53433708569138e-03 
3.48090277777778e+00 9.84010349157578e-03 3.46339625426114e-03 
3.49826388888889e+00 9.70143747226986e-03 3.39330461693935e-03 
3.51562500000000e+00 9.56554751420769e-03 3.32408101395927e-03 
3.53298611111111e+00 9.43241707254752e-03 3.25578273494157e-03 
3.55034722222222e+00 9.30200768606932e-03 3.18837640980164e-03 
3.56770833333333e+00 9.17427465844083e-03 3.12205329846328e-03 
3.58506944444445e+00 9.04924084583878e-03 3.05739239716464e-03 
3.60243055555556e+00 8.92687709956098e-03 2.99500235244173e-03 
3.61979166666667e+00 8.80713507405007e-03 2.93510051856893e-03 
3.63715277777778e+00 8.68986083855833e-03 2.87736244432480e-03 
3.65451388888889e+00 8.57504882465419e-03 2.82120114579420e-03 
3.67187500000000e+00 8.46266136334520e-03 2.76636841262369e-03 
3.68923611111111e+00 8.35263332604960e-03 2.71279724469686e-03 
3.70659722222222e+00 8.24490464971469e-03 2.66048904046878e-03 
3.72395833333333e+00 8.13943111086526e-03 2.60953675638046e-03 
3.74131944444445e+00 8.03613772727903e-03 2.55993062784860e-03 
3.75868055555556e+00 7.93496383642988e-03 2.51148878246942e-03 
3.77604166666667e+00 7.83586601195509e-03 2.46405206321487e-03 
3.79340277777778e+00 7.73879399214618e-03 2.41755449151522e-03 
3.81076388888889e+00 7.64369224837246e-03 2.37198868966710e-03 
3.82812500000000e+00 7.55052263583180e-03 2.32736046807896e-03 
3.84548611111111e+00 7.45923512144579e-03 2.28363176360746e-03 
3.86284722222222e+00 7.36978487508764e-03 2.24074304517643e-03 
3.88020833333333e+00 7.28213785486504e-03 2.19865314012486e-03 
3.89756944444445e+00 7.19623914656406e-03 2.15736552833060e-03 
3.91493055555556e+00 7.11205704553399e-03 2.11697067891542e-03 
3.93229166666667e+00 7.02956789991856e-03 2.07756014910614e-03 
3.94965277777778e+00 6.94872724569853e-03 2.03914738376749e-03 
3.96701388888889e+00 6.86949100326744e-03 2.00175119596844e-03 
3.98437500000000e+00 6.79186002823520e-03 1.96537013931449e-03 
4.00173611111111e+00 6.71580096124863e-03 1.92998718846885e-03 
4.01909722222222e+00 6.64122084611390e-03 1.89561948461778e-03 
4.03645833333333e+00 6.56804314022189e-03 1.86226711374592e-03 
4.05381944444445e+00 6.49622356437531e-03 1.82989944485921e-03 
4.07118055555556e+00 6.42575465943526e-03 1.79847715798138e-03 
4.08854166666667e+00 6.35661051191345e-03 1.76798629715033e-03 
4.10590277777778e+00 6.28874937024450e-03 1.73841054647223e-03 
4.12326388888889e+00 6.22211616852599e-03 1.70970990172217e-03 
4.14062500000000e+00 6.15667277736409e-03 1.68182507883598e-03 
4.15798611111111e+00 6.09238562056423e-03 1.65469876395433e-03 
4.17534722222222e+00 6.02922314600050e-03 1.62830246168509e-03 
4.19270833333333e+00 5.96715303180571e-03 1.60263470547650e-03 
4.21006944444445e+00 5.90614476380156e-03 1.57770458747531e-03 
4.22743055555556e+00 5.84618117932260e-03 1.55352244674886e-03 
4.24479166666667e+00 5.78722819225223e-03 1.53008471034914e-03 
4.26215277777778e+00 5.72925074361241e-03 1.50738304545378e-03 
4.27951388888889e+00 5.67221739080921e-03 1.48542410186484e-03 
4.29687500000000e+00 5.61609644495771e-03 1.46420635907471e-03 
4.31423611111111e+00 5.56085694655931e-03 1.44371354650758e-03 
4.33159722222222e+00 5.50646912073144e-03 1.42392803621597e-03 
4.34895833333333e+00 5.45290412518943e-03 1.40482201029732e-03 
4.36631944444445e+00 5.40013413149356e-03 1.38635436897997e-03 
4.38368055555556e+00 5.34813328460417e-03 1.36849259923154e-03 
4.40104166666667e+00 5.29687630821685e-03 1.35121337714996e-03 
4.41840277777778e+00 5.24633801378805e-03 1.33448940520779e-03 
4.43576388888889e+00 5.19650324276484e-03 1.31829457089819e-03 
4.45312500000000e+00 5.14736557020921e-03 1.30261144382556e-03 
4.47048611111111e+00 5.09890316570822e-03 1.28742949313555e-03 
4.48784722222222e+00 5.05109493716524e-03 1.27273645505729e-03 
4.50520833333333e+00 5.00392040609645e-03 1.25847642404960e-03 
4.52256944444445e+00 4.95734706959060e-03 1.24454683709320e-03 
4.53993055555556e+00 4.91141380591314e-03 1.23088063674475e-03 
4.55729166666667e+00 4.86612739709133e-03 1.21748781745378e-03 
4.57465277777778e+00 4.82147397825192e-03 1.20437573728459e-03 
4.59201388888889e+00 4.77743996012177e-03 1.19153695196115e-03 
4.60937500000000e+00 4.73401194574124e-03 1.17895171409364e-03 
4.62673611111111e+00 4.69117426325082e-03 1.16659059583582e-03 
4.64409722222222e+00 4.64891928953995e-03 1.15443324558445e-03 
4.66145833333333e+00 4.60723690890911e-03 1.14247103270245e-03 
4.67881944444445e+00 4.56611710276990e-03 1.13069721622014e-03 
4.69618055555556e+00 4.52555025618332e-03 1.11910657023531e-03 
4.71354166666667e+00 4.48552690040534e-03 1.10769289961026e-03 
4.73090277777778e+00 4.44603779544223e-03 1.09645673303936e-03 
4.74826388888889e+00 4.40707378718745e-03 1.08545171104835e-03 
4.76562500000000e+00 4.36862199458947e-03 1.07478065048062e-03 
4.78298611111111e+00 4.33066611767643e-03 1.06450478133012e-03 
4.80034722222222e+00 4.29318927342960e-03 1.05462731375564e-03 
4.81770833333333e+00 4.25617525575535e-03 1.04514321770333e-03 
4.83506944444445e+00 4.21960845504211e-03 1.03605559386272e-03 
4.85243055555556e+00 4.18347766026482e-03 1.02736638227731e-03 
4.86979166666667e+00 4.14776675909050e-03 1.01907104023892e-03 
4.88715277777778e+00 4.11245994714282e-03 1.01116091204877e-03 
4.90451388888889e+00 4.07754200542941e-03 1.00358902958483e-03 
4.92187500000000e+00 4.04298846966212e-03 9.96261996991145e-04 
4.93923611111111e+00 4.00878721401970e-03 9.89113568024187e-04 
4.95659722222222e+00 3.97493222959804e-03 9.82128273233418e-04 
4.97395833333333e+00 3.94141645298587e-03 9.75302737388608e-04 
4.99131944444445e+00 3.90823301027750e-03 9.68633602093028e-04 
5.00868055555556e+00 3.87537507783942e-03 9.62118942706667e-04 
5.02604166666667e+00 3.84281875632224e-03 9.55767418393130e-04 
5.04340277777778e+00 3.81055661628616e-03 9.49619203446676e-04 
5.06076388888889e+00 3.77857738090281e-03 9.43726768235236e-04 
5.07812500000000e+00 3.74686608274432e-03 9.38088553186440e-04 
5.09548611111111e+00 3.71541084691851e-03 9.32665325560975e-04 
5.11284722222222e+00 3.68420217835349e-03 9.27401146103719e-04 
5.13020833333333e+00 3.65322858373725e-03 9.22233825910236e-04 
5.14756944444445e+00 3.62248699665488e-03 9.17136511354736e-04 
5.16493055555556e+00 3.59197630026344e-03 9.12108499750131e-04 
5.18229166666667e+00 3.56170000244518e-03 9.07148337089479e-04 
5.19965277777778e+00 3.53165506053712e-03 9.02252919460941e-04 
5.21701388888889e+00 3.50183718864531e-03 8.97413911239978e-04 
5.23437500000000e+00 3.47224242416785e-03 8.92623047603574e-04 
5.25173611111111e+00 3.44286850491286e-03 8.87876829752946e-04 
5.26909722222222e+00 3.41371324614044e-03 8.83174350719830e-04 
5.28645833333333e+00 3.38477499240269e-03 8.78514798331933e-04 
5.30381944444445e+00 3.35605186032461e-03 8.73897417588510e-04 
5.32118055555556e+00 3.32754020839494e-03 8.69321664110772e-04 
5.33854166666667e+00 3.29923737685979e-03 8.64786816313374e-04 
5.35590277777778e+00 3.27114138098970e-03 8.60292070675609e-04 
5.37326388888889e+00 3.24325025293602e-03 8.55836616488409e-04 
5.39062500000000e+00 3.21556205420634e-03 8.51419707608492e-04 
