Energy(eV)           EEDF(eV^-(3/2))      Anisotropy(eV^-(3/2))
1.50000000000000e-02 4.28969421993389e-01 6.57162814220933e-03 
4.50000000000000e-02 4.28818122624983e-01 5.14512324671139e-03 
7.50000000000000e-02 4.28557286759628e-01 9.25475546718514e-03 
1.05000000000000e-01 4.28207499711634e-01 1.21510549406983e-02 
1.35000000000000e-01 4.27808333576247e-01 1.40468315513496e-02 
1.65000000000000e-01 4.27355549283250e-01 1.54124354413337e-02 
1.95000000000000e-01 4.26878360157903e-01 1.63554746434093e-02 
2.25000000000000e-01 4.26377874336836e-01 1.70788242953362e-02 
2.55000000000000e-01 4.25848385755391e-01 1.80788125333228e-02 
2.85000000000000e-01 4.25277407675598e-01 1.92086368043951e-02 
3.15000000000000e-01 4.24677031943728e-01 1.96408445292389e-02 
3.45000000000000e-01 4.24065140230483e-01 1.94893914446440e-02 
3.75000000000000e-01 4.23453902385041e-01 1.97234937742639e-02 
4.05000000000000e-01 4.22808333316186e-01 2.04592497437901e-02 
4.35000000000000e-01 4.22124079038175e-01 2.07473932311030e-02 
4.65000000000000e-01 4.21418579318100e-01 2.06777135862899e-02 
4.95000000000000e-01 4.20713042108461e-01 2.14082856897696e-02 
5.25000000000000e-01 4.19949280941969e-01 2.29099918645118e-02 
5.55000000000000e-01 4.19125004961981e-01 2.39732333410468e-02 
5.85000000000000e-01 4.18252414299311e-01 2.46521969056823e-02 
6.15000000000000e-01 4.17370436241024e-01 2.61602401943771e-02 
6.45000000000000e-01 4.16412664162754e-01 2.84650901568353e-02 
6.75000000000000e-01 4.15366460610000e-01 3.07108739069801e-02 
7.05000000000000e-01 4.14213670370238e-01 3.28779765777538e-02 
7.35000000000000e-01 4.13004636889768e-01 3.58841547707120e-02 
7.65000000000000e-01 4.11659540869067e-01 3.97129139520732e-02 
7.95000000000000e-01 4.10156374135842e-01 4.39367666961446e-02 
8.25000000000000e-01 4.08460719854320e-01 4.84146113095744e-02 
8.55000000000000e-01 4.06581868882019e-01 5.34814398836305e-02 
8.85000000000000e-01 4.04466666210356e-01 5.91461539289540e-02 
9.15000000000000e-01 4.02089638662458e-01 6.52514282501132e-02 
9.45000000000000e-01 3.99444497903700e-01 7.17835095358508e-02 
9.75000000000000e-01 3.96509637340980e-01 7.86711294769500e-02 
1.00500000000000e+00 3.93267872703273e-01 8.57723450472446e-02 
1.03500000000000e+00 3.89661745437598e-01 9.29004400591605e-02 
1.06500000000000e+00 3.85653379027126e-01 9.99902083580261e-02 
1.09500000000000e+00 3.81221876870826e-01 1.06976565227502e-01 
1.12500000000000e+00 3.76356884310515e-01 1.13783101129673e-01 
1.15500000000000e+00 3.71036910079961e-01 1.20427452061359e-01 
1.18500000000000e+00 3.65282483761110e-01 1.27057817854000e-01 
1.21500000000000e+00 3.59048860299784e-01 1.33622670292895e-01 
1.24500000000000e+00 3.52211027294605e-01 1.39923071646334e-01 
1.27500000000000e+00 3.44743713414667e-01 1.45780923169435e-01 
1.30500000000000e+00 3.36632370709860e-01 1.50904741860365e-01 
1.33500000000000e+00 3.27845458425821e-01 1.54977825358150e-01 
1.36500000000000e+00 3.18381858198133e-01 1.57731858907207e-01 
1.39500000000000e+00 3.08293808624116e-01 1.58986921018095e-01 
1.42500000000000e+00 2.97635185920914e-01 1.58664360373281e-01 
1.45500000000000e+00 2.86488320783781e-01 1.56819365639509e-01 
1.48500000000000e+00 2.74955890950795e-01 1.53652502309988e-01 
1.51500000000000e+00 2.63151537369986e-01 1.49490227722715e-01 
1.54500000000000e+00 2.51353953843426e-01 1.44660229747414e-01 
1.57500000000000e+00 2.39664621661048e-01 1.39520041804139e-01 
1.60500000000000e+00 2.28167693763576e-01 1.34345578589301e-01 
1.63500000000000e+00 2.16988911301218e-01 1.29287449099698e-01 
1.66500000000000e+00 2.06193903224107e-01 1.24391502595786e-01 
1.69500000000000e+00 1.95780373261579e-01 1.19609461297607e-01 
1.72500000000000e+00 1.85780219340681e-01 1.14812967590488e-01 
1.75500000000000e+00 1.76265381763048e-01 1.09841055692347e-01 
1.78500000000000e+00 1.67228872296096e-01 1.04621267519239e-01 
1.81500000000000e+00 1.58676214444992e-01 9.91804286259589e-02 
1.84500000000000e+00 1.50616420060760e-01 9.36624954210272e-02 
1.87500000000000e+00 1.43059849789708e-01 8.82808991712815e-02 
1.90500000000000e+00 1.35995628859911e-01 8.32499867974348e-02 
1.93500000000000e+00 1.29479406843826e-01 7.86688132534876e-02 
1.96500000000000e+00 1.23510125246373e-01 7.45540419519080e-02 
1.99500000000000e+00 1.18048841455217e-01 7.08278126877831e-02 
2.02500000000000e+00 1.13061228161629e-01 6.73606539249957e-02 
2.05500000000000e+00 1.08504253061728e-01 6.40420344996381e-02 
2.08500000000000e+00 1.04338988960322e-01 6.08135620374928e-02 
2.11500000000000e+00 1.00524171340803e-01 5.76618033869946e-02 
2.14500000000000e+00 9.69595353833476e-02 5.46477114717783e-02 
2.17500000000000e+00 9.36311248190079e-02 5.17958512710012e-02 
2.20500000000000e+00 9.05314419195085e-02 4.91308285408805e-02 
2.23500000000000e+00 8.76458232933738e-02 4.66604776857078e-02 
2.26500000000000e+00 8.49664948695089e-02 4.43738264638613e-02 
2.29500000000000e+00 8.24842977984884e-02 4.22469324270061e-02 
2.32500000000000e+00 8.01771954690044e-02 4.02529268945887e-02 
2.35500000000000e+00 7.80236039849535e-02 3.83730228487115e-02 
2.38500000000000e+00 7.60029474187151e-02 3.65969164363768e-02 
2.41500000000000e+00 7.40999838615032e-02 3.49230673220079e-02 
2.44500000000000e+00 7.23137448913267e-02 3.33563859492222e-02 
2.47500000000000e+00 7.06421402317669e-02 3.18987297633647e-02 
2.50500000000000e+00 6.90831233930972e-02 3.05483516077132e-02 
2.53500000000000e+00 6.76249348677505e-02 2.93056248207498e-02 
2.56500000000000e+00 6.62489413520263e-02 2.81567271516406e-02 
2.59500000000000e+00 6.49434065851222e-02 2.70836552185966e-02 
2.62500000000000e+00 6.36997461857252e-02 2.60702391066186e-02 
2.65500000000000e+00 6.25097236087838e-02 2.51037843590304e-02 
2.68500000000000e+00 6.13751799181255e-02 2.41867568542974e-02 
2.71500000000000e+00 6.02975829106451e-02 2.33286295886186e-02 
2.74500000000000e+00 5.92742938888660e-02 2.25356076838295e-02 
2.77500000000000e+00 5.83034552011016e-02 2.18082919823500e-02 
2.80500000000000e+00 5.73769160995940e-02 2.11355515262206e-02 
2.83500000000000e+00 5.64857913536546e-02 2.05035176775890e-02 
2.86500000000000e+00 5.56270484620526e-02 1.99041214262381e-02 
2.89500000000000e+00 5.47980759610404e-02 1.93343832974215e-02 
2.92500000000000e+00 5.39997410277010e-02 1.87988681641322e-02 
2.95500000000000e+00 5.32324058277075e-02 1.83037466420995e-02 
2.98500000000000e+00 5.24929009432969e-02 1.78485156587683e-02 
3.01500000000000e+00 5.17787161363559e-02 1.74284073151631e-02 
3.04500000000000e+00 5.10864367416676e-02 1.70351111588550e-02 
3.07500000000000e+00 5.04132241734992e-02 1.66610501169043e-02 
3.10500000000000e+00 4.97590187040759e-02 1.63044489945557e-02 
3.13500000000000e+00 4.91232109573259e-02 1.59662980255462e-02 
3.16500000000000e+00 4.85057091124421e-02 1.56491323369754e-02 
3.19500000000000e+00 4.79058361134935e-02 1.53548768457376e-02 
3.22500000000000e+00 4.73214483340893e-02 1.50809507667016e-02 
3.25500000000000e+00 4.67513407592068e-02 1.48224988305315e-02 
3.28500000000000e+00 4.61942556835371e-02 1.45749865103440e-02 
3.31500000000000e+00 4.56495595399389e-02 1.43362368614169e-02 
3.34500000000000e+00 4.51170653933317e-02 1.41071753024574e-02 
3.37500000000000e+00 4.45963552119926e-02 1.38885372685923e-02 
3.40500000000000e+00 4.40869528747917e-02 1.36801700962263e-02 
3.43500000000000e+00 4.35881589283366e-02 1.34809856353897e-02 
3.46500000000000e+00 4.30991103306943e-02 1.32888935504910e-02 
3.49500000000000e+00 4.26193954498720e-02 1.31023498156320e-02 
3.52500000000000e+00 4.21487302993119e-02 1.29210740130365e-02 
3.55500000000000e+00 4.16869937978493e-02 1.27456656328085e-02 
3.58500000000000e+00 4.12339734031344e-02 1.25774191123286e-02 
3.61500000000000e+00 4.07894409153908e-02 1.24176518753190e-02 
3.64500000000000e+00 4.03529385003396e-02 1.22660076590277e-02 
3.67500000000000e+00 3.99241653107445e-02 1.21203912405552e-02 
3.70500000000000e+00 3.95028516876406e-02 1.19796366028622e-02 
3.73500000000000e+00 3.90888174904850e-02 1.18438721663477e-02 
3.76500000000000e+00 3.86818403976712e-02 1.17131647282001e-02 
3.79500000000000e+00 3.82817119960363e-02 1.15870404541911e-02 
3.82500000000000e+00 3.78880806216708e-02 1.14649258346305e-02 
3.85500000000000e+00 3.75006304837882e-02 1.13463385918730e-02 
3.88500000000000e+00 3.71191414651414e-02 1.12307877382481e-02 
3.91500000000000e+00 3.67433974796229e-02 1.11182351379205e-02 
3.94500000000000e+00 3.63734613165886e-02 1.10090824087917e-02 
3.97500000000000e+00 3.60091545700250e-02 1.09036201753157e-02 
4.00500000000000e+00 3.56504631829346e-02 1.08017859085649e-02 
4.03500000000000e+00 3.52965455837313e-02 1.07035276792550e-02 
4.06500000000000e+00 3.49468869149907e-02 1.06085786519198e-02 
4.09500000000000e+00 3.46015019514545e-02 1.05167141288051e-02 
4.12500000000000e+00 3.42602176084498e-02 1.04278685302134e-02 
4.15500000000000e+00 3.39228365604528e-02 1.03418736909412e-02 
4.18500000000000e+00 3.35892413257675e-02 1.02584817002146e-02 
4.21500000000000e+00 3.32593057094546e-02 1.01775921708333e-02 
4.24500000000000e+00 3.29330123254766e-02 1.00991722451241e-02 
4.27500000000000e+00 3.26102312611438e-02 1.00231936314813e-02 
4.30500000000000e+00 3.22908568974007e-02 9.94964308316109e-03 
4.33500000000000e+00 3.19747990266162e-02 9.87848689790207e-03 
4.36500000000000e+00 3.16619659126419e-02 9.80960588981879e-03 
4.39500000000000e+00 3.13522631180104e-02 9.74281426940177e-03 
4.42500000000000e+00 3.10455824886671e-02 9.67793730738683e-03 
4.45500000000000e+00 3.07418685921139e-02 9.61484069828895e-03 
4.48500000000000e+00 3.04410807630816e-02 9.55343151759968e-03 
4.51500000000000e+00 3.01431467283862e-02 9.49346662734162e-03 
4.54500000000000e+00 2.98480685649696e-02 9.43456541719223e-03 
4.57500000000000e+00 2.95559941231059e-02 9.37657248690631e-03 
4.60500000000000e+00 2.92668723893536e-02 9.31949598698456e-03 
4.63500000000000e+00 2.89806442920283e-02 9.26323388650574e-03 
4.66500000000000e+00 2.86972745701748e-02 9.20766336150194e-03 
4.69500000000000e+00 2.84167238204753e-02 9.15270722248433e-03 
4.72500000000000e+00 2.81389449381048e-02 9.09833524685503e-03 
4.75500000000000e+00 2.78638822171664e-02 9.04469692282012e-03 
4.78500000000000e+00 2.75914910246315e-02 8.99214132692241e-03 
4.81500000000000e+00 2.73217159096147e-02 8.94091601329111e-03 
4.84500000000000e+00 2.70545348237728e-02 8.89107338571035e-03 
4.87500000000000e+00 2.67899117600434e-02 8.84261871330490e-03 
4.90500000000000e+00 2.65277891721176e-02 8.79540948188625e-03 
4.93500000000000e+00 2.62680867080749e-02 8.74911743472687e-03 
4.96500000000000e+00 2.60107566988025e-02 8.70348562501493e-03 
4.99500000000000e+00 2.57557706338869e-02 8.65843734747439e-03 
5.02500000000000e+00 2.55030045746887e-02 8.61396285554725e-03 
5.05500000000000e+00 2.52522417682187e-02 8.57017089025050e-03 
5.08500000000000e+00 2.50034220194979e-02 8.52721934025156e-03 
5.11500000000000e+00 2.47564871399051e-02 8.48499009147234e-03 
5.14500000000000e+00 2.45113814724000e-02 8.44317663866916e-03 
5.17500000000000e+00 2.42681001460055e-02 8.40164989248921e-03 
5.20500000000000e+00 2.40266590011764e-02 8.36039083445116e-03 
5.23500000000000e+00 2.37870263552593e-02 8.31936710635793e-03 
5.26500000000000e+00 2.35491794823604e-02 8.27855674634427e-03 
5.29500000000000e+00 2.33131062295749e-02 8.23795316546329e-03 
5.32500000000000e+00 2.30787857059312e-02 8.19755451893734e-03 
5.35500000000000e+00 2.28461858429827e-02 8.15736030332688e-03 
5.38500000000000e+00 2.26152936196091e-02 8.11736449258620e-03 
5.41500000000000e+00 2.23860963855140e-02 8.07755707795722e-03 
5.44500000000000e+00 2.21585823500862e-02 8.03793773222396e-03 
5.47500000000000e+00 2.19327389622090e-02 7.99853045320324e-03 
5.50500000000000e+00 2.17085531367169e-02 7.95934188783795e-03 
5.53500000000000e+00 2.14860400676049e-02 7.92033244795631e-03 
5.56500000000000e+00 2.12652028840000e-02 7.88147027320028e-03 
5.59500000000000e+00 2.10460304877586e-02 7.84275575026968e-03 
5.62500000000000e+00 2.08285070535233e-02 7.80420410638282e-03 
5.65500000000000e+00 2.06126123623811e-02 7.76583564303054e-03 
5.68500000000000e+00 2.03983346776596e-02 7.72766441306957e-03 
5.71500000000000e+00 2.01856619863442e-02 7.68968543616216e-03 
5.74500000000000e+00 1.99745962509602e-02 7.65187585292757e-03 
5.77500000000000e+00 1.97651265920410e-02 7.61422622316516e-03 
5.80500000000000e+00 1.95572423009671e-02 7.57673801026630e-03 
5.83500000000000e+00 1.93509243469971e-02 7.53941523458133e-03 
5.86500000000000e+00 1.91461579155021e-02 7.50227809248418e-03 
5.89500000000000e+00 1.89429293563095e-02 7.46535175044485e-03 
5.92500000000000e+00 1.87411863365021e-02 7.42865425468469e-03 
5.95500000000000e+00 1.85408564944800e-02 7.39219891508186e-03 
5.98500000000000e+00 1.83419285229688e-02 7.35598549929373e-03 
6.01500000000000e+00 1.81443911877058e-02 7.31990986362226e-03 
6.04500000000000e+00 1.79479146933129e-02 7.28379804193529e-03 
6.07500000000000e+00 1.77524658669773e-02 7.24751475761852e-03 
6.10500000000000e+00 1.75580477798544e-02 7.21105863264838e-03 
6.13500000000000e+00 1.73646975454019e-02 7.17445214383835e-03 
6.16500000000000e+00 1.71724345144313e-02 7.13771762207985e-03 
6.19500000000000e+00 1.69812607326887e-02 7.10086098410185e-03 
6.22500000000000e+00 1.67911782278774e-02 7.06387335135547e-03 
6.25500000000000e+00 1.66021897828123e-02 7.02674976507434e-03 
6.28500000000000e+00 1.64142975727510e-02 6.98950084255651e-03 
6.31500000000000e+00 1.62275032303131e-02 6.95214184922850e-03 
6.34500000000000e+00 1.60418081122833e-02 6.91467809050086e-03 
6.37500000000000e+00 1.58572136494440e-02 6.87710466624352e-03 
6.40500000000000e+00 1.56737214935969e-02 6.83940059271030e-03 
6.43500000000000e+00 1.54913352588802e-02 6.80153229940508e-03 
6.46500000000000e+00 1.53100588690634e-02 6.76348875705864e-03 
6.49500000000000e+00 1.51298954827439e-02 6.72528509107640e-03 
6.52500000000000e+00 1.49508476376956e-02 6.68694608901487e-03 
6.55500000000000e+00 1.47729169495615e-02 6.64849464498179e-03 
6.58500000000000e+00 1.45961048964656e-02 6.60994215128505e-03 
6.61500000000000e+00 1.44204127747031e-02 6.57128691266540e-03 
6.64500000000000e+00 1.42458539249956e-02 6.53251998011701e-03 
6.67500000000000e+00 1.40724298934937e-02 6.49364705870067e-03 
6.70500000000000e+00 1.39001418351953e-02 6.45468679867321e-03 
6.73500000000000e+00 1.37289901038665e-02 6.41566660511527e-03 
6.76500000000000e+00 1.35589743222830e-02 6.37661141565167e-03 
6.79500000000000e+00 1.33900937723477e-02 6.33753612493382e-03 
6.82500000000000e+00 1.32223461519407e-02 6.29845055248775e-03 
6.85500000000000e+00 1.30557278258895e-02 6.25935646839982e-03 
6.88500000000000e+00 1.28902375843687e-02 6.22025087779597e-03 
6.91500000000000e+00 1.27258743505470e-02 6.18113197053369e-03 
6.94500000000000e+00 1.25625839280007e-02 6.14200560347839e-03 
6.97500000000000e+00 1.24003660086714e-02 6.10286838686793e-03 
7.00500000000000e+00 1.22392201889786e-02 6.06369811011648e-03 
7.03500000000000e+00 1.20791150028418e-02 6.02443998016352e-03 
7.06500000000000e+00 1.19200385927031e-02 5.98505179312877e-03 
7.09500000000000e+00 1.17619946096459e-02 5.94544247841365e-03 
7.12500000000000e+00 1.16049317764051e-02 5.90528964508485e-03 
7.15500000000000e+00 1.14487541471836e-02 5.86421922879437e-03 
7.18500000000000e+00 1.12934925345024e-02 5.82210574360570e-03 
7.21500000000000e+00 1.11391765477720e-02 5.77900006495935e-03 
7.24500000000000e+00 1.09858341436295e-02 5.73494787165223e-03 
7.27500000000000e+00 1.08334928160961e-02 5.68998410830763e-03 
7.30500000000000e+00 1.06821792481132e-02 5.64413816339605e-03 
7.33500000000000e+00 1.05319198349866e-02 5.59743618905591e-03 
7.36500000000000e+00 1.03827402538762e-02 5.54990884218965e-03 
7.39500000000000e+00 1.02346650650761e-02 5.50161645585855e-03 
7.42500000000000e+00 1.00877259161587e-02 5.45268014850867e-03 
7.45500000000000e+00 9.94195905618350e-03 5.40323315239060e-03 
7.48500000000000e+00 9.79737925619343e-03 5.35334691145390e-03 
7.51500000000000e+00 9.65400056250560e-03 5.30304817651951e-03 
7.54500000000000e+00 9.51183649071035e-03 5.25236221112917e-03 
7.57500000000000e+00 9.37089978487838e-03 5.20131728107621e-03 
7.60500000000000e+00 9.23120242707004e-03 5.14994282117259e-03 
7.63500000000000e+00 9.09275567434803e-03 5.09826636785980e-03 
7.66500000000000e+00 8.95557004081030e-03 5.04631446447502e-03 
7.69500000000000e+00 8.81965540281693e-03 4.99411365078200e-03 
7.72500000000000e+00 8.68502968143983e-03 4.94168685144328e-03 
7.75500000000000e+00 8.55171860806329e-03 4.88904794654753e-03 
7.78500000000000e+00 8.41972998067881e-03 4.83621248098173e-03 
7.81500000000000e+00 8.28907121276799e-03 4.78320367627856e-03 
7.84500000000000e+00 8.15973979323076e-03 4.73005306225902e-03 
7.87500000000000e+00 8.03174161390527e-03 4.67678215469728e-03 
7.90500000000000e+00 7.90508221965939e-03 4.62340636810512e-03 
7.93500000000000e+00 7.77972916841096e-03 4.56994813748780e-03 
7.96500000000000e+00 7.65566963299322e-03 4.51641790269711e-03 
7.99500000000000e+00 7.53290931844877e-03 4.46286729023245e-03 
8.02500000000000e+00 7.41146692315853e-03 4.40943955198669e-03 
8.05500000000000e+00 7.29139482824085e-03 4.35623778606970e-03 
8.08500000000000e+00 7.17266624702653e-03 4.30327363911500e-03 
8.11500000000000e+00 7.05527800255261e-03 4.25053324264344e-03 
8.14500000000000e+00 6.93924846658981e-03 4.19802946948259e-03 
8.17500000000000e+00 6.82457253455857e-03 4.14578019738811e-03 
8.20500000000000e+00 6.71124248128035e-03 4.09379867002097e-03 
8.23500000000000e+00 6.59924818678250e-03 4.04209942845130e-03 
8.26500000000000e+00 6.48858163093208e-03 3.99069372403211e-03 
8.29500000000000e+00 6.37923692136341e-03 3.93958755097581e-03 
8.32500000000000e+00 6.27119200711506e-03 3.88878747936568e-03 
8.35500000000000e+00 6.16440942412414e-03 3.83830443639525e-03 
8.38500000000000e+00 6.05888276402671e-03 3.78814218445199e-03 
8.41500000000000e+00 5.95460655336094e-03 3.73826946701874e-03 
8.44500000000000e+00 5.85157983376905e-03 3.68861727149134e-03 
8.47500000000000e+00 5.74980078045538e-03 3.63916024628945e-03 
8.50500000000000e+00 5.64926718252461e-03 3.58989347490118e-03 
8.53500000000000e+00 5.54996301211162e-03 3.54079158419556e-03 
8.56500000000000e+00 5.45187428334788e-03 3.49183847150002e-03 
8.59500000000000e+00 5.35500080024830e-03 3.44303022029714e-03 
8.62500000000000e+00 5.25935342388346e-03 3.39433881493744e-03 
8.65500000000000e+00 5.16495440972808e-03 3.34572383134408e-03 
8.68500000000000e+00 5.07180510077982e-03 3.29718538278237e-03 
8.71500000000000e+00 4.97990631767237e-03 3.24874168303030e-03 
8.74500000000000e+00 4.88925839031980e-03 3.20041038532376e-03 
8.77500000000000e+00 4.79986114130439e-03 3.15220818869564e-03 
8.80500000000000e+00 4.71171391179420e-03 3.10415458497049e-03 
8.83500000000000e+00 4.62481519254426e-03 3.05627333025872e-03 
8.86500000000000e+00 4.53916289761354e-03 3.00858522952485e-03 
8.89500000000000e+00 4.45475451225444e-03 2.96110504823055e-03 
8.92500000000000e+00 4.37158545042399e-03 2.91384517621729e-03 
8.95500000000000e+00 4.28964922532890e-03 2.86681736936850e-03 
8.98500000000000e+00 4.20894243326340e-03 2.82003216671972e-03 
9.01500000000000e+00 4.12946131318630e-03 2.77353617979573e-03 
9.04500000000000e+00 4.05127527679159e-03 2.72736717039979e-03 
9.07500000000000e+00 3.97437459421588e-03 2.68156955202891e-03 
9.10500000000000e+00 3.89874934404974e-03 2.63614872584515e-03 
9.13500000000000e+00 3.82438335223673e-03 2.59111257778482e-03 
9.16500000000000e+00 3.75126355113502e-03 2.54646652964773e-03 
9.19500000000000e+00 3.67937980377239e-03 2.50222551710879e-03 
9.22500000000000e+00 3.60871845526162e-03 2.45843842090034e-03 
9.25500000000000e+00 3.53926234789282e-03 2.41516306836249e-03 
9.28500000000000e+00 3.47099750637920e-03 2.37241943716717e-03 
9.31500000000000e+00 3.40391002568910e-03 2.33020547759930e-03 
