Energy(eV)           EEDF(eV^-(3/2))      Anisotropy(eV^-(3/2))
8.68055555555556e-03 9.35674845877398e-01 3.96921663800908e-02 
2.60416666666667e-02 9.32761599889275e-01 3.23032281513709e-02 
4.34027777777778e-02 9.27575394776769e-01 6.23663214486099e-02 
6.07638888888889e-02 9.20900711114418e-01 8.68559160933913e-02 
7.81250000000000e-02 9.13607315451081e-01 1.03987733787657e-01 
9.54861111111111e-02 9.06021799933582e-01 1.15142211194311e-01 
1.12847222222222e-01 8.98564859870364e-01 1.21842378346992e-01 
1.30208333333333e-01 8.91322501383170e-01 1.25856793217455e-01 
1.47569444444444e-01 8.84154750794336e-01 1.28743412581478e-01 
1.64930555555556e-01 8.77157960244942e-01 1.31065274155824e-01 
1.82291666666667e-01 8.70495717631328e-01 1.32255480133674e-01 
1.99652777777778e-01 8.64098643280501e-01 1.32744613140025e-01 
2.17013888888889e-01 8.57891292627852e-01 1.33244327504635e-01 
2.34375000000000e-01 8.51797538367773e-01 1.33602318108872e-01 
2.51736111111111e-01 8.45826472940510e-01 1.33848563333216e-01 
2.69097222222222e-01 8.40024583692776e-01 1.34892915915958e-01 
2.86458333333333e-01 8.34347084933664e-01 1.36416035489524e-01 
3.03819444444445e-01 8.28824648732379e-01 1.35756984753839e-01 
3.21180555555556e-01 8.23508026412358e-01 1.32462918052276e-01 
3.38541666666667e-01 8.18379526078636e-01 1.28332676653818e-01 
3.55902777777778e-01 8.13513009211760e-01 1.24035260382083e-01 
3.73263888888889e-01 8.08844768845518e-01 1.19842919688797e-01 
3.90625000000000e-01 8.04351882887793e-01 1.16816863287726e-01 
4.07986111111111e-01 7.99952671430138e-01 1.14942928136607e-01 
4.25347222222222e-01 7.95628715774896e-01 1.12740117663939e-01 
4.42708333333333e-01 7.91411624600829e-01 1.09778414409415e-01 
4.60069444444445e-01 7.87227736293542e-01 1.06401428853329e-01 
4.77430555555556e-01 7.83274471461846e-01 1.03411856969889e-01 
4.94791666666667e-01 7.79421443476330e-01 1.01243172646932e-01 
5.12152777777778e-01 7.75647047066757e-01 1.00057899045725e-01 
5.29513888888889e-01 7.71898198821873e-01 9.98477065736537e-02 
5.46875000000000e-01 7.68159435983931e-01 9.94156292721756e-02 
5.64236111111111e-01 7.64460546988198e-01 9.79395719285274e-02 
5.81597222222222e-01 7.60732063662529e-01 9.59087875723922e-02 
5.98958333333333e-01 7.57203543341107e-01 9.46740416156857e-02 
6.16319444444445e-01 7.53702994629084e-01 9.48064580519363e-02 
6.33680555555556e-01 7.50197978208369e-01 9.56668025028084e-02 
6.51041666666667e-01 7.46674197502728e-01 9.65004598563548e-02 
6.68402777777778e-01 7.43148411303294e-01 9.72093830203690e-02 
6.85763888888889e-01 7.39613420660361e-01 9.74578539055696e-02 
7.03125000000000e-01 7.35998861959243e-01 9.72322003061005e-02 
7.20486111111111e-01 7.32504439391200e-01 9.79188127901433e-02 
7.37847222222222e-01 7.28951376234710e-01 9.97036912651271e-02 
7.55208333333333e-01 7.25320397343672e-01 1.01825348927659e-01 
7.72569444444445e-01 7.21606024806605e-01 1.04109532710175e-01 
7.89930555555556e-01 7.17801495002167e-01 1.06154946341754e-01 
8.07291666666667e-01 7.13831668891715e-01 1.07834470998414e-01 
8.24652777777778e-01 7.09846419567291e-01 1.10213080590048e-01 
8.42013888888889e-01 7.05740688171917e-01 1.13603907326832e-01 
8.59375000000000e-01 7.01463988725329e-01 1.17557475520234e-01 
8.76736111111111e-01 6.96996816974298e-01 1.21877096592702e-01 
8.94097222222222e-01 6.92326382163060e-01 1.26341977935496e-01 
9.11458333333334e-01 6.87426555610583e-01 1.30759903638162e-01 
9.28819444444445e-01 6.82321745752727e-01 1.35396617788182e-01 
9.46180555555556e-01 6.77061609324040e-01 1.40670152070399e-01 
9.63541666666667e-01 6.71569411298628e-01 1.46433403715813e-01 
9.80902777777778e-01 6.65831115319294e-01 1.52485291576061e-01 
9.98263888888889e-01 6.59835373414042e-01 1.58733146287689e-01 
1.01562500000000e+00 6.53543463452379e-01 1.65008141142922e-01 
1.03298611111111e+00 6.46877796054258e-01 1.71161647252988e-01 
1.05034722222222e+00 6.39869777016652e-01 1.77368039766944e-01 
1.06770833333333e+00 6.32532150988324e-01 1.83759376747763e-01 
1.08506944444444e+00 6.24817628465131e-01 1.90177367032092e-01 
1.10243055555556e+00 6.16719360463318e-01 1.96494865886061e-01 
1.11979166666667e+00 6.08241302811854e-01 2.02691442017370e-01 
1.13715277777778e+00 5.99382435950262e-01 2.08684703981385e-01 
1.15451388888889e+00 5.90113545277965e-01 2.14431314831131e-01 
1.17187500000000e+00 5.80497377296297e-01 2.20070605874060e-01 
1.18923611111111e+00 5.70493927398655e-01 2.25526446915136e-01 
1.20659722222222e+00 5.60103768542764e-01 2.30674125317877e-01 
1.22395833333333e+00 5.49252119685776e-01 2.35410626022580e-01 
1.24131944444444e+00 5.37927423036515e-01 2.39640017614252e-01 
1.25868055555556e+00 5.26139281105069e-01 2.43297475902859e-01 
1.27604166666667e+00 5.13919008382612e-01 2.46330026605987e-01 
1.29340277777778e+00 5.01272367015636e-01 2.48627603104215e-01 
1.31076388888889e+00 4.88218946430910e-01 2.50090251093595e-01 
1.32812500000000e+00 4.74752378195658e-01 2.50646331163470e-01 
1.34548611111111e+00 4.60907255223569e-01 2.50242827948169e-01 
1.36284722222222e+00 4.46719015393857e-01 2.48862773592701e-01 
1.38020833333333e+00 4.32250301344696e-01 2.46527311153516e-01 
1.39756944444444e+00 4.17540969825915e-01 2.43260318030235e-01 
1.41493055555556e+00 4.02645966337873e-01 2.39098673281890e-01 
1.43229166666667e+00 3.87621034030391e-01 2.34109083127358e-01 
1.44965277777778e+00 3.72521410747231e-01 2.28376367116913e-01 
1.46701388888889e+00 3.57410556219038e-01 2.22003708800196e-01 
1.48437500000000e+00 3.42346665980062e-01 2.15111223565817e-01 
1.50173611111111e+00 3.27390692716957e-01 2.07831479084181e-01 
1.51909722222222e+00 3.12666375918782e-01 2.00275388220498e-01 
1.53645833333333e+00 2.98260908584198e-01 1.92564943473270e-01 
1.55381944444444e+00 2.84221353881446e-01 1.84819814046137e-01 
1.57118055555556e+00 2.70573976419765e-01 1.77141712323236e-01 
1.58854166666667e+00 2.57347966207292e-01 1.69614310172462e-01 
1.60590277777778e+00 2.44561627007806e-01 1.62308033818122e-01 
1.62326388888889e+00 2.32273457080235e-01 1.55244558456855e-01 
1.64062500000000e+00 2.20494069882933e-01 1.48443806545092e-01 
1.65798611111111e+00 2.09210093700234e-01 1.41904629540590e-01 
1.67534722222222e+00 1.98406247363801e-01 1.35613387674144e-01 
1.69270833333333e+00 1.88068971676828e-01 1.29546558926764e-01 
1.71006944444444e+00 1.78179275443349e-01 1.23687651363674e-01 
1.72743055555556e+00 1.68789465985526e-01 1.17989110655891e-01 
1.74479166666667e+00 1.59873813518601e-01 1.12436272415765e-01 
1.76215277777778e+00 1.51411531168532e-01 1.07011255681906e-01 
1.77951388888889e+00 1.43386011158538e-01 1.01709296448294e-01 
1.79687500000000e+00 1.35780691413109e-01 9.65362211887530e-02 
1.81423611111111e+00 1.28581170754353e-01 9.15113776432307e-02 
1.83159722222222e+00 1.21776657514166e-01 8.66586203180063e-02 
1.84895833333333e+00 1.15350510502837e-01 8.20060853214584e-02 
1.86631944444444e+00 1.09290449309561e-01 7.75806156377091e-02 
1.88368055555556e+00 1.03580730540768e-01 7.34027760089711e-02 
1.90104166666667e+00 9.82047228074141e-02 6.94884861122712e-02 
1.91840277777778e+00 9.31719260150902e-02 6.58350500431526e-02 
1.93576388888889e+00 8.84801112369355e-02 6.24310482731506e-02 
1.95312500000000e+00 8.41069337011105e-02 5.92613362200332e-02 
1.97048611111111e+00 8.00338026766751e-02 5.63019142828545e-02 
1.98784722222222e+00 7.62389042600081e-02 5.35309592210404e-02 
2.00520833333333e+00 7.27067981959068e-02 5.09277020290540e-02 
2.02256944444445e+00 6.94179045502592e-02 4.84759434692381e-02 
2.03993055555556e+00 6.63542621253632e-02 4.61605424375554e-02 
2.05729166666667e+00 6.34993759470996e-02 4.39714721032084e-02 
2.07465277777778e+00 6.08360326668685e-02 4.19008471690911e-02 
2.09201388888889e+00 5.83478358656805e-02 3.99403403714179e-02 
2.10937500000000e+00 5.60209711961953e-02 3.80763847768791e-02 
2.12673611111111e+00 5.38197664682220e-02 3.63099993836649e-02 
2.14409722222222e+00 5.17368449094832e-02 3.46286508611270e-02 
2.16145833333333e+00 4.97660155328946e-02 3.30250030462473e-02 
2.17881944444445e+00 4.79006159307027e-02 3.14945259705943e-02 
2.19618055555556e+00 4.61395926092008e-02 3.00335647641846e-02 
2.21354166666667e+00 4.44770669578125e-02 2.86426061224680e-02 
2.23090277777778e+00 4.29062495035803e-02 2.73239616224567e-02 
2.24826388888889e+00 4.14249011252046e-02 2.60776745328818e-02 
2.26562500000000e+00 4.00282046087046e-02 2.49048344984103e-02 
2.28298611111111e+00 3.87117022015525e-02 2.38062830068075e-02 
2.30034722222222e+00 3.74701740692510e-02 2.27792570207024e-02 
2.31770833333333e+00 3.62955831903939e-02 2.18189677549913e-02 
2.33506944444445e+00 3.51827485389885e-02 2.09174495720794e-02 
2.35243055555556e+00 3.41247836354467e-02 2.00673774155486e-02 
2.36979166666667e+00 3.31173626423477e-02 1.92624200232914e-02 
2.38715277777778e+00 3.21568604683709e-02 1.84971844201393e-02 
2.40451388888889e+00 3.12400974146406e-02 1.77664678313029e-02 
2.42187500000000e+00 3.03657591778318e-02 1.70675754135767e-02 
2.43923611111111e+00 2.95328675048936e-02 1.63985670314359e-02 
2.45659722222222e+00 2.87397914857919e-02 1.57606043918897e-02 
2.47395833333333e+00 2.79871400532851e-02 1.51557347696434e-02 
2.49131944444445e+00 2.72722414661161e-02 1.45858737412878e-02 
2.50868055555556e+00 2.65939267732080e-02 1.40503683858596e-02 
2.52604166666667e+00 2.59465512001823e-02 1.35495819519638e-02 
2.54340277777778e+00 2.53272738161209e-02 1.30800395597718e-02 
2.56076388888889e+00 2.47341167985089e-02 1.26398058657416e-02 
2.57812500000000e+00 2.41647320054621e-02 1.22245828404830e-02 
2.59548611111111e+00 2.36159210884196e-02 1.18293992826751e-02 
2.61284722222222e+00 2.30873372715315e-02 1.14502045626071e-02 
2.63020833333333e+00 2.25768670078963e-02 1.10840017737382e-02 
2.64756944444445e+00 2.20842627621384e-02 1.07288018996554e-02 
2.66493055555556e+00 2.16096338592621e-02 1.03848966850506e-02 
2.68229166666667e+00 2.11521523511869e-02 1.00526169868366e-02 
2.69965277777778e+00 2.07120090168722e-02 9.73395111704983e-03 
2.71701388888889e+00 2.02892448358892e-02 9.43089012362000e-03 
2.73437500000000e+00 1.98823289960192e-02 9.14440525289659e-03 
2.75173611111111e+00 1.94912049460086e-02 8.87492299120857e-03 
2.76909722222222e+00 1.91143398242527e-02 8.62168311306081e-03 
2.78645833333333e+00 1.87503415215454e-02 8.38237024686749e-03 
2.80381944444445e+00 1.83985447518020e-02 8.15503394629102e-03 
2.82118055555556e+00 1.80570065437508e-02 7.93740346432788e-03 
2.83854166666667e+00 1.77248948346206e-02 7.72739605683087e-03 
2.85590277777778e+00 1.74022224482432e-02 7.52380042439595e-03 
2.87326388888889e+00 1.70881963003828e-02 7.32582589733767e-03 
2.89062500000000e+00 1.67830470935389e-02 7.13369735365855e-03 
2.90798611111111e+00 1.64866961982081e-02 6.94832288825629e-03 
2.92534722222222e+00 1.61987763748467e-02 6.77033179233350e-03 
2.94270833333333e+00 1.59193004534600e-02 6.60059163138973e-03 
2.96006944444445e+00 1.56478058227026e-02 6.43939829661656e-03 
2.97743055555556e+00 1.53837176317048e-02 6.28651504538627e-03 
2.99479166666667e+00 1.51267418098183e-02 6.14141031926806e-03 
3.01215277777778e+00 1.48760559892399e-02 6.00300967786322e-03 
3.02951388888889e+00 1.46313395131864e-02 5.87018944331531e-03 
3.04687500000000e+00 1.43923145597900e-02 5.74203855940901e-03 
3.06423611111111e+00 1.41585672808761e-02 5.61758552030244e-03 
3.08159722222222e+00 1.39300145815915e-02 5.49629169301066e-03 
3.09895833333333e+00 1.37065916743246e-02 5.37768210505535e-03 
3.11631944444445e+00 1.34881644038685e-02 5.26168919644953e-03 
3.13368055555556e+00 1.32748155180995e-02 5.14915370682059e-03 
3.15104166666667e+00 1.30663728610269e-02 5.04078700211748e-03 
3.16840277777778e+00 1.28626408840412e-02 4.93671311398974e-03 
3.18576388888889e+00 1.26634822606576e-02 4.83685009768236e-03 
3.20312500000000e+00 1.24685570902200e-02 4.74090499492607e-03 
3.22048611111111e+00 1.22777025835682e-02 4.64858648069170e-03 
3.23784722222222e+00 1.20907499360220e-02 4.55938363575534e-03 
3.25520833333333e+00 1.19074564095445e-02 4.47233580338817e-03 
3.27256944444445e+00 1.17277438212004e-02 4.38675379386369e-03 
3.28993055555556e+00 1.15515482156948e-02 4.30239877783832e-03 
3.30729166666667e+00 1.13788001470994e-02 4.21926327484112e-03 
3.32465277777778e+00 1.12094771661826e-02 4.13749291537375e-03 
3.34201388888889e+00 1.10435350223747e-02 4.05705183866367e-03 
3.35937500000000e+00 1.08809090830773e-02 3.97785976963422e-03 
3.37673611111111e+00 1.07215842343298e-02 3.89997070990545e-03 
3.39409722222222e+00 1.05654723828815e-02 3.82334494627072e-03 
3.41145833333333e+00 1.04124867090944e-02 3.74799272150552e-03 
3.42881944444445e+00 1.02625621694782e-02 3.67400986122130e-03 
3.44618055555556e+00 1.01155780818057e-02 3.60124953712811e-03 
3.46354166666667e+00 9.97147773872423e-03 3.52950057517878e-03 
3.48090277777778e+00 9.83022388527281e-03 3.45867131372491e-03 
3.49826388888889e+00 9.69176503714406e-03 3.38869061921085e-03 
3.51562500000000e+00 9.55607820933209e-03 3.31957728819109e-03 
3.53298611111111e+00 9.42314684583597e-03 3.25138857748423e-03 
3.55034722222222e+00 9.29293248725609e-03 3.18409123322302e-03 
3.56770833333333e+00 9.16539046795931e-03 3.11787616700467e-03 
3.58506944444445e+00 9.04054350311873e-03 3.05332121605501e-03 
3.60243055555556e+00 8.91836239122773e-03 2.99103371192831e-03 
3.61979166666667e+00 8.79879881500868e-03 2.93123046778782e-03 
3.63715277777778e+00 8.68169911648032e-03 2.87358751176454e-03 
3.65451388888889e+00 8.56705764263824e-03 2.81751885222881e-03 
3.67187500000000e+00 8.45483676017970e-03 2.76277666041455e-03 
3.68923611111111e+00 8.34497143562807e-03 2.70929400805968e-03 
3.70659722222222e+00 8.23740169556173e-03 2.65707226220443e-03 
3.72395833333333e+00 8.13208333786214e-03 2.60620425739304e-03 
3.74131944444445e+00 8.02894150509395e-03 2.55668027411628e-03 
3.75868055555556e+00 7.92791562620573e-03 2.50831879970934e-03 
3.77604166666667e+00 7.82896234035200e-03 2.46096099109627e-03 
3.79340277777778e+00 7.73203145237546e-03 2.41454096588248e-03 
3.81076388888889e+00 7.63706752059757e-03 2.36905130176806e-03 
3.82812500000000e+00 7.54403249728179e-03 2.32449773644909e-03 
3.84548611111111e+00 7.45287641959655e-03 2.28084222134528e-03 
3.86284722222222e+00 7.36355452263996e-03 2.23802528635288e-03 
3.88020833333333e+00 7.27603281778215e-03 2.19600581370311e-03 
3.89756944444445e+00 7.19025648312321e-03 2.15478725634045e-03 
3.91493055555556e+00 7.10619384376284e-03 2.11445992539548e-03 
3.93229166666667e+00 7.02382124314368e-03 2.07511523872308e-03 
3.94965277777778e+00 6.94309429317373e-03 2.03676662317899e-03 
3.96701388888889e+00 6.86396898924646e-03 1.99943287125479e-03 
3.98437500000000e+00 6.78644616468933e-03 1.96311254880042e-03 
4.00173611111111e+00 6.71049250914876e-03 1.92778863729378e-03 
4.01909722222222e+00 6.63601517395645e-03 1.89347822394253e-03 
4.03645833333333e+00 6.56293771648682e-03 1.86018136711203e-03 
4.05381944444445e+00 6.49121593952040e-03 1.82786747098786e-03 
4.07118055555556e+00 6.42084238987828e-03 1.79649729217198e-03 
4.08854166666667e+00 6.35179120115770e-03 1.76605690636561e-03 
4.10590277777778e+00 6.28402070097157e-03 1.73653003533145e-03 
4.12326388888889e+00 6.21747590679717e-03 1.70787676263343e-03 
4.14062500000000e+00 6.15211875702090e-03 1.68003791318869e-03 
4.15798611111111e+00 6.08791573877936e-03 1.65295627222320e-03 
4.17534722222222e+00 6.02483536003231e-03 1.62660339786102e-03 
4.19270833333333e+00 5.96284535966660e-03 1.60097783553084e-03 
4.21006944444445e+00 5.90191528454896e-03 1.57608866559649e-03 
4.22743055555556e+00 5.84202802982728e-03 1.55194619905767e-03 
4.24479166666667e+00 5.78314957327966e-03 1.52854686792431e-03 
4.26215277777778e+00 5.72524492192045e-03 1.50588235665868e-03 
4.27951388888889e+00 5.66828269209901e-03 1.48395930943917e-03 
4.29687500000000e+00 5.61223125419904e-03 1.46277621327479e-03 
4.31423611111111e+00 5.55705970487742e-03 1.44231682750131e-03 
4.33159722222222e+00 5.50273832176002e-03 1.42256355766355e-03 
4.34895833333333e+00 5.44923831629619e-03 1.40348863870055e-03 
4.36631944444445e+00 5.39653191144511e-03 1.38505104618831e-03 
4.38368055555556e+00 5.34459330001848e-03 1.36721832506360e-03 
4.40104166666667e+00 5.29339725193352e-03 1.34996718813825e-03 
4.41840277777778e+00 5.24291863290277e-03 1.33327037318227e-03 
4.43576388888889e+00 5.19314231727474e-03 1.31710180630510e-03 
4.45312500000000e+00 5.14406189136821e-03 1.30144409115837e-03 
4.47048611111111e+00 5.09565556537757e-03 1.28628671674212e-03 
4.48784722222222e+00 5.04790228658786e-03 1.27161744128427e-03 
4.50520833333333e+00 5.00078161476596e-03 1.25738045464709e-03 
4.52256944444445e+00 4.95426109722303e-03 1.24347336145918e-03 
4.53993055555556e+00 4.90837953643713e-03 1.22982922251797e-03 
4.55729166666667e+00 4.86314370177437e-03 1.21645802068848e-03 
4.57465277777778e+00 4.81853975468792e-03 1.20336710466317e-03 
4.59201388888889e+00 4.77455413151087e-03 1.19054904349670e-03 
4.60937500000000e+00 4.73117346041175e-03 1.17798412085006e-03 
4.62673611111111e+00 4.68838209897883e-03 1.16564295266819e-03 
4.64409722222222e+00 4.64617243866349e-03 1.15350521349571e-03 
4.66145833333333e+00 4.60453438362889e-03 1.14156227745969e-03 
4.67881944444445e+00 4.56345793492625e-03 1.12980741091644e-03 
4.69618055555556e+00 4.52293349667445e-03 1.11823539621724e-03 
4.71354166666667e+00 4.48295162086827e-03 1.10684004376516e-03 
4.73090277777778e+00 4.44350309112097e-03 1.09562187574857e-03 
4.74826388888889e+00 4.40457877184698e-03 1.08463444917731e-03 
4.76562500000000e+00 4.36616580688387e-03 1.07398042312469e-03 
4.78298611111111e+00 4.32824792759595e-03 1.06372093558683e-03 
4.80034722222222e+00 4.29080828295916e-03 1.05385919454528e-03 
4.81770833333333e+00 4.25383069405545e-03 1.04439018023675e-03 
4.83506944444445e+00 4.21729957769105e-03 1.03531699115185e-03 
4.85243055555556e+00 4.18120374478458e-03 1.02664156822252e-03 
4.86979166666667e+00 4.14552711346005e-03 1.01835937911244e-03 
4.88715277777778e+00 4.11025390889146e-03 1.01046178396731e-03 
4.90451388888889e+00 4.07536894069034e-03 1.00290188907917e-03 
4.92187500000000e+00 4.04084778321451e-03 9.95586442295147e-04 
4.93923611111111e+00 4.00667833149220e-03 9.88449299926383e-04 
4.95659722222222e+00 3.97285458854966e-03 9.81475018144570e-04 
4.97395833333333e+00 3.93936950453560e-03 9.74660227742382e-04 
4.99131944444445e+00 3.90621621888750e-03 9.68001576310069e-04 
5.00868055555556e+00 3.87338792100105e-03 9.61497146323231e-04 
5.02604166666667e+00 3.84086072109585e-03 9.55155589757044e-04 
5.04340277777778e+00 3.80862720374358e-03 9.49017017618596e-04 
5.06076388888889e+00 3.77667611278669e-03 9.43133819649929e-04 
5.07812500000000e+00 3.74499250762546e-03 9.37504439235337e-04 
5.09548611111111e+00 3.71356453474037e-03 9.32089703995695e-04 
5.11284722222222e+00 3.68238271948124e-03 9.26833759470746e-04 
5.13020833333333e+00 3.65143559834603e-03 9.21674510887567e-04 
5.14756944444445e+00 3.62072011090750e-03 9.16585148584688e-04 
5.16493055555556e+00 3.59023514303322e-03 9.11564972678695e-04 
5.18229166666667e+00 3.55998419783893e-03 9.06612532279592e-04 
5.19965277777778e+00 3.52996423853397e-03 9.01724728432299e-04 
5.21701388888889e+00 3.50017098541019e-03 8.96893239539079e-04 
5.23437500000000e+00 3.47060048134512e-03 8.92109814784042e-04 
5.25173611111111e+00 3.44125046844930e-03 8.87370960773523e-04 
5.26909722222222e+00 3.41211876622236e-03 8.82675771379786e-04 
5.28645833333333e+00 3.38320372261924e-03 8.78023435413071e-04 
5.30381944444445e+00 3.35450345801548e-03 8.73413198623277e-04 
5.32118055555556e+00 3.32601433302947e-03 8.68844517241628e-04 
5.33854166666667e+00 3.29773369120275e-03 8.64316670229520e-04 
5.35590277777778e+00 3.26965955181376e-03 8.59828854630945e-04 
5.37326388888889e+00 3.24178995098036e-03 8.55380260366906e-04 
5.39062500000000e+00 3.21412295412584e-03 8.50970142089089e-04 
