Energy(eV)           EEDF(eV^-(3/2))      Anisotropy(eV^-(3/2))
8.68055555555556e-03 2.10063556263695e-01 -1.83273612137053e-03 
2.60416666666667e-02 2.10090042901801e-01 -7.98586945994426e-04 
4.34027777777778e-02 2.10113213607684e-01 -2.05031746079119e-04 
6.07638888888889e-02 2.10133574792869e-01 1.49680824818719e-04 
7.81250000000000e-02 2.10150863253021e-01 4.15256199457026e-04 
9.54861111111111e-02 2.10164903904227e-01 6.52998235461648e-04 
1.12847222222222e-01 2.10175477434885e-01 8.73003679804576e-04 
1.30208333333333e-01 2.10182415424228e-01 1.08640013657466e-03 
1.47569444444444e-01 2.10185375225926e-01 1.85830873610881e-03 
1.64930555555556e-01 2.10167168440831e-01 3.14538138830347e-03 
1.82291666666667e-01 2.10125734119755e-01 3.84460939472271e-03 
1.99652777777778e-01 2.10078165828691e-01 4.14632260188068e-03 
2.17013888888889e-01 2.10019251131405e-01 4.58040125893327e-03 
2.34375000000000e-01 2.09949062116785e-01 4.81702621898355e-03 
2.51736111111111e-01 2.09874247337917e-01 4.89211015877978e-03 
2.69097222222222e-01 2.09793894469790e-01 6.31061138649662e-03 
2.86458333333333e-01 2.09652990073722e-01 8.99647016574426e-03 
3.03819444444445e-01 2.09447899282963e-01 1.03441776067764e-02 
3.21180555555556e-01 2.09234962148963e-01 1.05087529548490e-02 
3.38541666666667e-01 2.08992197941009e-01 1.07216832935956e-02 
3.55902777777778e-01 2.08754265119497e-01 1.07780054826894e-02 
3.73263888888889e-01 2.08514506251123e-01 1.07569086443236e-02 
3.90625000000000e-01 2.08267711481108e-01 1.22296416615564e-02 
4.07986111111111e-01 2.07941712567585e-01 1.50362980902968e-02 
4.25347222222222e-01 2.07539190984277e-01 1.68599822484293e-02 
4.42708333333333e-01 2.07105768013932e-01 1.70703992799581e-02 
4.60069444444445e-01 2.06589549192753e-01 1.61705813370008e-02 
4.77430555555556e-01 2.06189114001201e-01 1.53209589797430e-02 
4.94791666666667e-01 2.05789755002232e-01 1.53096199094139e-02 
5.12152777777778e-01 2.05383211628319e-01 1.64249495038735e-02 
5.29513888888889e-01 2.04913309417214e-01 1.86865718808378e-02 
5.46875000000000e-01 2.04374091625909e-01 2.01985659879084e-02 
5.64236111111111e-01 2.03812261886808e-01 1.95905614795243e-02 
5.81597222222222e-01 2.03163082856571e-01 1.79130228937244e-02 
5.98958333333333e-01 2.02701994852547e-01 1.68248412264629e-02 
6.16319444444445e-01 2.02240766601622e-01 1.75985951363417e-02 
6.33680555555556e-01 2.01749911183063e-01 1.91834466738654e-02 
6.51041666666667e-01 2.01223917453202e-01 2.03585121362905e-02 
6.68402777777778e-01 2.00694372296778e-01 2.09362067095574e-02 
6.85763888888889e-01 2.00164042148440e-01 2.02861054563127e-02 
7.03125000000000e-01 1.99560043257533e-01 1.87244205280380e-02 
7.20486111111111e-01 1.99137087400372e-01 1.78919122738999e-02 
7.37847222222222e-01 1.98705856467773e-01 1.85101987980479e-02 
7.55208333333333e-01 1.98255960867892e-01 1.92077791582275e-02 
7.72569444444445e-01 1.97794131355043e-01 1.96699703369372e-02 
7.89930555555556e-01 1.97325525490049e-01 1.91650020587237e-02 
8.07291666666667e-01 1.96788063919507e-01 1.77361438515530e-02 
8.24652777777778e-01 1.96352559501803e-01 1.66852072170584e-02 
8.42013888888889e-01 1.95918798962371e-01 1.67779282694158e-02 
8.59375000000000e-01 1.95450067688682e-01 1.72439027742064e-02 
8.76736111111111e-01 1.94939224928559e-01 1.77533021778470e-02 
8.94097222222222e-01 1.94387963913172e-01 1.79218827128337e-02 
9.11458333333334e-01 1.93795003280003e-01 1.74631068571910e-02 
9.28819444444445e-01 1.93207030906364e-01 1.68592092559390e-02 
9.46180555555556e-01 1.92664406107016e-01 1.67345171612875e-02 
9.63541666666667e-01 1.92109057646140e-01 1.69795630037555e-02 
9.80902777777778e-01 1.91537357902652e-01 1.72943408222598e-02 
9.98263888888889e-01 1.90947743873296e-01 1.75702603496323e-02 
1.01562500000000e+00 1.90344549135377e-01 1.76097222373449e-02 
1.03298611111111e+00 1.89722273960477e-01 1.73294034634872e-02 
1.05034722222222e+00 1.89111092495454e-01 1.70665200060643e-02 
1.06770833333333e+00 1.88516229444020e-01 1.71253125301211e-02 
1.08506944444444e+00 1.87908357526420e-01 1.73420865291501e-02 
1.10243055555556e+00 1.87287605357914e-01 1.75360394216923e-02 
1.11979166666667e+00 1.86655264020332e-01 1.77018176068138e-02 
1.13715277777778e+00 1.86011896857611e-01 1.77304309094316e-02 
1.15451388888889e+00 1.85350791765279e-01 1.76357906497864e-02 
1.17187500000000e+00 1.84704181779781e-01 1.76799710804193e-02 
1.18923611111111e+00 1.84045440446522e-01 1.78636274677421e-02 
1.20659722222222e+00 1.83374372412084e-01 1.80357927065753e-02 
1.22395833333333e+00 1.82696251518882e-01 1.81716568352090e-02 
1.24131944444444e+00 1.82010713910677e-01 1.82423996980430e-02 
1.25868055555556e+00 1.81321165312237e-01 1.82939438135729e-02 
1.27604166666667e+00 1.80633861036590e-01 1.84105046219629e-02 
1.29340277777778e+00 1.79940106543403e-01 1.85688818498472e-02 
1.31076388888889e+00 1.79240271606052e-01 1.87218529780911e-02 
1.32812500000000e+00 1.78536734402733e-01 1.88715498168133e-02 
1.34548611111111e+00 1.77829475016044e-01 1.89986775085267e-02 
1.36284722222222e+00 1.77116796500783e-01 1.91039372760795e-02 
1.38020833333333e+00 1.76405603636586e-01 1.92375567007417e-02 
1.39756944444444e+00 1.75690431594248e-01 1.93969376349116e-02 
1.41493055555556e+00 1.74971336195735e-01 1.95546032118735e-02 
1.43229166666667e+00 1.74248483939994e-01 1.97073149201064e-02 
1.44965277777778e+00 1.73521975489460e-01 1.98470744159467e-02 
1.46701388888889e+00 1.72791791364120e-01 1.99767287001145e-02 
1.48437500000000e+00 1.72060100594731e-01 2.01115882858112e-02 
1.50173611111111e+00 1.71325374679150e-01 2.02498419699936e-02 
1.51909722222222e+00 1.70587788342234e-01 2.03848042785140e-02 
1.53645833333333e+00 1.69847459720117e-01 2.05147065409159e-02 
1.55381944444444e+00 1.69104247386604e-01 2.06377412997099e-02 
1.57118055555556e+00 1.68358974198175e-01 2.07596494191541e-02 
1.58854166666667e+00 1.67611742815572e-01 2.08845305067125e-02 
1.60590277777778e+00 1.66862168108101e-01 2.10095513051214e-02 
1.62326388888889e+00 1.66110354014133e-01 2.11324968797794e-02 
1.64062500000000e+00 1.65356375294711e-01 2.12513887964580e-02 
1.65798611111111e+00 1.64600191886767e-01 2.13662352060474e-02 
1.67534722222222e+00 1.63842493939365e-01 2.14810493285195e-02 
1.69270833333333e+00 1.63083011423079e-01 2.15962689119808e-02 
1.71006944444444e+00 1.62321813080789e-01 2.17097561803943e-02 
1.72743055555556e+00 1.61559672642362e-01 2.18209959155138e-02 
1.74479166666667e+00 1.60796706805228e-01 2.19299069235113e-02 
1.76215277777778e+00 1.60033029217545e-01 2.20365308377680e-02 
1.77951388888889e+00 1.59268751330116e-01 2.21408991362687e-02 
1.79687500000000e+00 1.58503982523298e-01 2.22429873229824e-02 
1.81423611111111e+00 1.57738835226576e-01 2.23425645265474e-02 
1.83159722222222e+00 1.56973435550109e-01 2.24393297762323e-02 
1.84895833333333e+00 1.56207912364502e-01 2.25332197422566e-02 
1.86631944444444e+00 1.55442391163981e-01 2.26243094083308e-02 
1.88368055555556e+00 1.54676994324270e-01 2.27126487593078e-02 
1.90104166666667e+00 1.53911841489235e-01 2.27983122722087e-02 
1.91840277777778e+00 1.53146624540743e-01 2.28813416971963e-02 
1.93576388888889e+00 1.52381119677315e-01 2.29617590106654e-02 
1.95312500000000e+00 1.51615433151699e-01 2.30396010034979e-02 
1.97048611111111e+00 1.50849667306652e-01 2.31148065097788e-02 
1.98784722222222e+00 1.50083913539817e-01 2.31872366095969e-02 
2.00520833333333e+00 1.49318283608633e-01 2.32568661082760e-02 
2.02256944444445e+00 1.48552887663899e-01 2.33237497172221e-02 
2.03993055555556e+00 1.47787832395237e-01 2.33879222907710e-02 
2.05729166666667e+00 1.47023222112522e-01 2.34494241548815e-02 
2.07465277777778e+00 1.46259158604315e-01 2.35082996779252e-02 
2.09201388888889e+00 1.45495741474424e-01 2.35645934255312e-02 
2.10937500000000e+00 1.44733033460638e-01 2.36183198031532e-02 
2.12673611111111e+00 1.43970304484582e-01 2.36693535879392e-02 
2.14409722222222e+00 1.43207652578483e-01 2.37176666722431e-02 
2.16145833333333e+00 1.42445173209545e-01 2.37633119808262e-02 
2.17881944444445e+00 1.41682959743814e-01 2.38063308191047e-02 
2.19618055555556e+00 1.40921103823640e-01 2.38467186235418e-02 
2.21354166666667e+00 1.40159640446319e-01 2.38843489469672e-02 
2.23090277777778e+00 1.39398519838777e-01 2.39190306778047e-02 
2.24826388888889e+00 1.38637846768516e-01 2.39506834644647e-02 
2.26562500000000e+00 1.37877723459882e-01 2.39793253259722e-02 
2.28298611111111e+00 1.37118250461106e-01 2.40049973139693e-02 
2.30034722222222e+00 1.36359526082592e-01 2.40277485792838e-02 
2.31770833333333e+00 1.35601694269818e-01 2.40476187055342e-02 
2.33506944444445e+00 1.34844893862358e-01 2.40646458636201e-02 
2.35243055555556e+00 1.34089217621894e-01 2.40788804938889e-02 
2.36979166666667e+00 1.33334755934908e-01 2.40903729770075e-02 
2.38715277777778e+00 1.32581597186426e-01 2.40991738139289e-02 
2.40451388888889e+00 1.31829827399024e-01 2.41052817578450e-02 
2.42187500000000e+00 1.31080989364506e-01 2.41087337995270e-02 
2.43923611111111e+00 1.30335626243721e-01 2.41096215499118e-02 
2.45659722222222e+00 1.29593818072985e-01 2.41080056153936e-02 
2.47395833333333e+00 1.28855642325010e-01 2.41039292769401e-02 
2.49131944444445e+00 1.28121174109944e-01 2.40974356126494e-02 
2.50868055555556e+00 1.27390486038319e-01 2.40886379225884e-02 
2.52604166666667e+00 1.26661508585592e-01 2.40775563802600e-02 
2.54340277777778e+00 1.25934313603397e-01 2.40641242745913e-02 
2.56076388888889e+00 1.25208971118653e-01 2.40483868385170e-02 
2.57812500000000e+00 1.24485549361981e-01 2.40303888211450e-02 
2.59548611111111e+00 1.23764114758962e-01 2.40101837396436e-02 
2.61284722222222e+00 1.23044799949836e-01 2.39878255073797e-02 
2.63020833333333e+00 1.22327883848730e-01 2.39633715681588e-02 
2.64756944444445e+00 1.21613425619206e-01 2.39368826253731e-02 
2.66493055555556e+00 1.20901482672167e-01 2.39083994004537e-02 
2.68229166666667e+00 1.20192110828464e-01 2.38779599743455e-02 
2.69965277777778e+00 1.19485364338899e-01 2.38456169942477e-02 
2.71701388888889e+00 1.18781295789920e-01 2.38114534439090e-02 
2.73437500000000e+00 1.18079954469155e-01 2.37755545870096e-02 
2.75173611111111e+00 1.17381386286779e-01 2.37379740688750e-02 
2.76909722222222e+00 1.16685635730316e-01 2.36987447937804e-02 
2.78645833333333e+00 1.15992746030886e-01 2.36578920036357e-02 
2.80381944444445e+00 1.15302759488032e-01 2.36154426516680e-02 
2.82118055555556e+00 1.14615066324118e-01 2.35714238429238e-02 
2.83854166666667e+00 1.13929458872216e-01 2.35257821246708e-02 
2.85590277777778e+00 1.13245985529058e-01 2.34784555182207e-02 
2.87326388888889e+00 1.12564693557729e-01 2.34294413979815e-02 
2.89062500000000e+00 1.11885628997250e-01 2.33787722117541e-02 
2.90798611111111e+00 1.11208836861736e-01 2.33264889413491e-02 
2.92534722222222e+00 1.10534396204589e-01 2.32726483266986e-02 
2.94270833333333e+00 1.09862349611076e-01 2.32172996103670e-02 
2.96006944444445e+00 1.09192737044453e-01 2.31604734594244e-02 
2.97743055555556e+00 1.08525597477572e-01 2.31021970153496e-02 
2.99479166666667e+00 1.07860968953324e-01 2.30425079387993e-02 
3.01215277777778e+00 1.07198870962212e-01 2.29814682765627e-02 
3.02951388888889e+00 1.06539270088357e-01 2.29191734944261e-02 
3.04687500000000e+00 1.05882193012349e-01 2.28557517382255e-02 
3.06423611111111e+00 1.05227665873700e-01 2.27913099124537e-02 
3.08159722222222e+00 1.04575713451204e-01 2.27258876155582e-02 
3.09895833333333e+00 1.03926360046524e-01 2.26595044064390e-02 
3.11631944444445e+00 1.03279616577839e-01 2.25921896431727e-02 
3.13368055555556e+00 1.02635489642965e-01 2.25239736852603e-02 
3.15104166666667e+00 1.01994000938071e-01 2.24548813820553e-02 
3.16840277777778e+00 1.01355171410552e-01 2.23849352189323e-02 
3.18576388888889e+00 1.00719021286098e-01 2.23141613833219e-02 
3.20312500000000e+00 1.00085569815323e-01 2.22426003842030e-02 
3.22048611111111e+00 9.94554948054176e-02 2.21702833142179e-02 
3.23784722222222e+00 9.88291186362526e-02 2.20972384969699e-02 
3.25520833333333e+00 9.82064551544995e-02 2.20234111365274e-02 
3.27256944444445e+00 9.75875171390047e-02 2.19487719598448e-02 
3.28993055555556e+00 9.69723165948687e-02 2.18733388566409e-02 
3.30729166666667e+00 9.63608649264198e-02 2.17971586780628e-02 
3.32465277777778e+00 9.57517415749651e-02 2.17203543635844e-02 
3.34201388888889e+00 9.51448416043714e-02 2.16428551898091e-02 
3.35937500000000e+00 9.45401842778819e-02 2.15646729985717e-02 
3.37673611111111e+00 9.39377882811596e-02 2.14858275258537e-02 
3.39409722222222e+00 9.33376717548958e-02 2.14063351027908e-02 
3.41145833333333e+00 9.27398524295501e-02 2.13262139395571e-02 
3.42881944444445e+00 9.21443472861967e-02 2.12455180483372e-02 
3.44618055555556e+00 9.15511684099055e-02 2.11643312116447e-02 
3.46354166666667e+00 9.09603276437170e-02 2.10827155840186e-02 
3.48090277777778e+00 9.03718361399222e-02 2.10006978708590e-02 
3.49826388888889e+00 8.97857047427266e-02 2.09182887145319e-02 
3.51562500000000e+00 8.92019337526809e-02 2.08354988316033e-02 
3.53298611111111e+00 8.86205182028395e-02 2.07523388595039e-02 
3.55034722222222e+00 8.80414682448112e-02 2.06688195920156e-02 
3.56770833333333e+00 8.74647936561556e-02 2.05849537616646e-02 
3.58506944444445e+00 8.68905038561480e-02 2.05007568730551e-02 
3.60243055555556e+00 8.63186077146383e-02 2.04162565244404e-02 
3.61979166666667e+00 8.57490800647822e-02 2.03314857754996e-02 
3.63715277777778e+00 8.51819107508074e-02 2.02464641128263e-02 
3.65451388888889e+00 8.46171088678433e-02 2.01612275700921e-02 
3.67187500000000e+00 8.40546798366927e-02 2.00758309508834e-02 
3.68923611111111e+00 8.34946276466334e-02 1.99903018034493e-02 
3.70659722222222e+00 8.29369561648636e-02 1.99046464049104e-02 
3.72395833333333e+00 8.23813225251300e-02 1.98189017426950e-02 
3.74131944444445e+00 8.18276858547806e-02 1.97330432963945e-02 
3.75868055555556e+00 8.12760532780577e-02 1.96470460872304e-02 
3.77604166666667e+00 8.07264326063363e-02 1.95609003082348e-02 
3.79340277777778e+00 8.01788315396712e-02 1.94746201756622e-02 
3.81076388888889e+00 7.96332572930406e-02 1.93882804558195e-02 
3.82812500000000e+00 7.90897147373112e-02 1.93020474371671e-02 
3.84548611111111e+00 7.85481992205760e-02 1.92161388587262e-02 
3.86284722222222e+00 7.80087012330268e-02 1.91307178057355e-02 
3.88020833333333e+00 7.74712089786576e-02 1.90458314303719e-02 
3.89756944444445e+00 7.69357107575923e-02 1.89614752258624e-02 
3.91493055555556e+00 7.64022041409082e-02 1.88776504394173e-02 
3.93229166666667e+00 7.58706934109595e-02 1.87943766543683e-02 
3.94965277777778e+00 7.53411655282046e-02 1.87117097994052e-02 
3.96701388888889e+00 7.48136051997112e-02 1.86297190253813e-02 
3.98437500000000e+00 7.42879953563000e-02 1.85484292707635e-02 
4.00173611111111e+00 7.37643192093070e-02 1.84677252465974e-02 
4.01909722222222e+00 7.32427472481414e-02 1.83873190510291e-02 
4.03645833333333e+00 7.27233976776237e-02 1.83070639568520e-02 
4.05381944444445e+00 7.22062678837864e-02 1.82270941746467e-02 
4.07118055555556e+00 7.16913469396911e-02 1.81475587274497e-02 
4.08854166666667e+00 7.11786217962452e-02 1.80684916043436e-02 
4.10590277777778e+00 7.06680795691723e-02 1.79899180274963e-02 
4.12326388888889e+00 7.01591065715172e-02 1.79119266062249e-02 
4.14062500000000e+00 6.96515788676979e-02 1.78344324670381e-02 
4.15798611111111e+00 6.91454907861128e-02 1.77572903885565e-02 
4.17534722222222e+00 6.86408407719555e-02 1.76804083786265e-02 
4.19270833333333e+00 6.81376257201729e-02 1.76037341695574e-02 
4.21006944444445e+00 6.76358929962744e-02 1.75272071195253e-02 
4.22743055555556e+00 6.71362712482313e-02 1.74507928212287e-02 
4.24479166666667e+00 6.66387546864184e-02 1.73745929767116e-02 
4.26215277777778e+00 6.61433368396058e-02 1.72986283132057e-02 
4.27951388888889e+00 6.56500116417418e-02 1.72228962937302e-02 
4.29687500000000e+00 6.51587730715386e-02 1.71473852714107e-02 
4.31423611111111e+00 6.46696237398535e-02 1.70720554353583e-02 
4.33159722222222e+00 6.41825767506127e-02 1.69968996077830e-02 
4.34895833333333e+00 6.36976268627990e-02 1.69220177317927e-02 
4.36631944444445e+00 6.32147643749139e-02 1.68475244681286e-02 
4.38368055555556e+00 6.27339774000612e-02 1.67734550093268e-02 
4.40104166666667e+00 6.22552541919410e-02 1.66997323608297e-02 
4.41840277777778e+00 6.17785546575133e-02 1.66261649461530e-02 
4.43576388888889e+00 6.13038528586594e-02 1.65526372252351e-02 
4.45312500000000e+00 6.08311480089584e-02 1.64791949595972e-02 
4.47048611111111e+00 6.03604373487303e-02 1.64058747739916e-02 
4.48784722222222e+00 5.98917184932772e-02 1.63326708471534e-02 
4.50520833333333e+00 5.94249890161081e-02 1.62596023009466e-02 
4.52256944444445e+00 5.89601760754183e-02 1.61867268928495e-02 
4.53993055555556e+00 5.84972576564372e-02 1.61141425981680e-02 
4.55729166666667e+00 5.80362252189467e-02 1.60419739181601e-02 
4.57465277777778e+00 5.75770667274714e-02 1.59702831200430e-02 
4.59201388888889e+00 5.71197698795554e-02 1.58990706296781e-02 
4.60937500000000e+00 5.66643226686651e-02 1.58283013154608e-02 
4.62673611111111e+00 5.62107168648868e-02 1.57578976791570e-02 
4.64409722222222e+00 5.57589462153467e-02 1.56876851004871e-02 
4.66145833333333e+00 5.53090110797293e-02 1.56174283270558e-02 
4.67881944444445e+00 5.48609174733230e-02 1.55470247358277e-02 
4.69618055555556e+00 5.44146711872318e-02 1.54764593797452e-02 
4.71354166666667e+00 5.39702689784329e-02 1.54056311530798e-02 
4.73090277777778e+00 5.35276967103797e-02 1.53343927298197e-02 
4.74826388888889e+00 5.30869704847073e-02 1.52626667681763e-02 
4.76562500000000e+00 5.26481067902912e-02 1.51904418830902e-02 
4.78298611111111e+00 5.22111222308244e-02 1.51177252277515e-02 
4.80034722222222e+00 5.17760329001148e-02 1.50445255969076e-02 
4.81770833333333e+00 5.13428763277074e-02 1.49708469148658e-02 
4.83506944444445e+00 5.09116876530255e-02 1.48967197374396e-02 
4.85243055555556e+00 5.04824803780696e-02 1.48221947298822e-02 
4.86979166666667e+00 5.00552670874763e-02 1.47473099595572e-02 
4.88715277777778e+00 4.96300595803214e-02 1.46720852422029e-02 
4.90451388888889e+00 4.92068693131440e-02 1.45965154976197e-02 
4.92187500000000e+00 4.87857395221138e-02 1.45205890230901e-02 
4.93923611111111e+00 4.83666916615435e-02 1.44443368098116e-02 
4.95659722222222e+00 4.79497357391245e-02 1.43677999276625e-02 
4.97395833333333e+00 4.75348809935354e-02 1.42909943668454e-02 
4.99131944444445e+00 4.71221365049793e-02 1.42139296259193e-02 
5.00868055555556e+00 4.67115109650697e-02 1.41367007487124e-02 
5.02604166666667e+00 4.63025570127805e-02 1.40594945432205e-02 
5.04340277777778e+00 4.58952797067671e-02 1.39822847972542e-02 
5.06076388888889e+00 4.54896865773777e-02 1.39050118365117e-02 
5.07812500000000e+00 4.50857861972058e-02 1.38276628080483e-02 
5.09548611111111e+00 4.46835868778677e-02 1.37502451715948e-02 
5.11284722222222e+00 4.42831711174627e-02 1.36727583753727e-02 
5.13020833333333e+00 4.38847801251220e-02 1.35952142962291e-02 
5.14756944444445e+00 4.34884170092650e-02 1.35176919490915e-02 
5.16493055555556e+00 4.30940828907117e-02 1.34402388870178e-02 
5.18229166666667e+00 4.27017780631408e-02 1.33628720502262e-02 
5.19965277777778e+00 4.23115026295235e-02 1.32856071401687e-02 
5.21701388888889e+00 4.19232059633000e-02 1.32084949987153e-02 
5.23437500000000e+00 4.15368321810517e-02 1.31315907013736e-02 
5.25173611111111e+00 4.11523785746778e-02 1.30549078099035e-02 
5.26909722222222e+00 4.07698425726976e-02 1.29784425984664e-02 
5.28645833333333e+00 4.03892216579304e-02 1.29021944773983e-02 
5.30381944444445e+00 4.00105132678781e-02 1.28261577329302e-02 
5.32118055555556e+00 3.96335690924253e-02 1.27503399048764e-02 
5.33854166666667e+00 3.92583321651208e-02 1.26747314032336e-02 
5.35590277777778e+00 3.88848026592411e-02 1.25993190752494e-02 
5.37326388888889e+00 3.85129811598574e-02 1.25240946849588e-02 
5.39062500000000e+00 3.81428682816275e-02 1.24490599701478e-02 
