Energy(eV)           EEDF(eV^-(3/2))      Anisotropy(eV^-(3/2))
7.23379629629630e-03 2.18444423097053e-01 -2.22815732125434e-03 
2.17013888888889e-02 2.18471578328738e-01 -1.00054058847680e-03 
3.61689814814815e-02 2.18495603732265e-01 -3.37319559752177e-04 
5.06365740740741e-02 2.18517360667079e-01 1.59625868834646e-05 
6.51041666666667e-02 2.18536913756110e-01 2.73930532660019e-04 
7.95717592592593e-02 2.18553958711160e-01 4.86951771118942e-04 
9.40393518518519e-02 2.18568486793753e-01 6.81121346051131e-04 
1.08506944444444e-01 2.18580350458287e-01 8.62072843469166e-04 
1.22974537037037e-01 2.18589472960546e-01 1.03834431407250e-03 
1.37442129629630e-01 2.18595629339529e-01 1.77222086618655e-03 
1.51909722222222e-01 2.18583611331794e-01 3.04006267226727e-03 
1.66377314814815e-01 2.18551439435065e-01 3.73725238203097e-03 
1.80844907407407e-01 2.18514345565614e-01 3.93147536733865e-03 
1.95312500000000e-01 2.18470723149102e-01 4.31451401007584e-03 
2.09780092592593e-01 2.18415555737773e-01 4.71368534551192e-03 
2.24247685185185e-01 2.18352862861955e-01 4.86132778921287e-03 
2.38715277777778e-01 2.18286998429946e-01 4.89626277869458e-03 
2.53182870370370e-01 2.18217327514574e-01 6.27959004149421e-03 
2.67650462962963e-01 2.18094046221013e-01 9.39670238827823e-03 
2.82118055555556e-01 2.17896926620802e-01 1.15728933466882e-02 
2.96585648148148e-01 2.17676195433072e-01 1.18969106150937e-02 
3.11053240740741e-01 2.17452601068056e-01 1.21877547063346e-02 
3.25520833333333e-01 2.17207647927985e-01 1.27268303055705e-02 
3.39988425925926e-01 2.16930920260781e-01 1.25791116036869e-02 
3.54456018518519e-01 2.16677954455235e-01 1.21971568822317e-02 
3.68923611111111e-01 2.16425508236578e-01 1.28771177723465e-02 
3.83391203703704e-01 2.16133350286203e-01 1.53450370958664e-02 
3.97858796296296e-01 2.15754580277397e-01 1.79534708946119e-02 
4.12326388888889e-01 2.15325745277036e-01 1.91118032961914e-02 
4.26793981481482e-01 2.14878035045608e-01 1.99425181792715e-02 
4.41261574074074e-01 2.14396189171331e-01 1.99010964547171e-02 
4.55729166666667e-01 2.13842595559254e-01 1.83182461117417e-02 
4.70196759259259e-01 2.13398125720194e-01 1.68149075452951e-02 
4.84664351851852e-01 2.12998791701616e-01 1.64689840972564e-02 
4.99131944444445e-01 2.12594160568512e-01 1.75939231654348e-02 
5.13599537037037e-01 2.12127059120429e-01 1.98782411329034e-02 
5.28067129629630e-01 2.11596444618826e-01 2.15264245111827e-02 
5.42534722222222e-01 2.11037421494065e-01 2.25069658615727e-02 
5.57002314814815e-01 2.10449220906112e-01 2.24679835802185e-02 
5.71469907407407e-01 2.09807476762194e-01 2.06710313230812e-02 
5.85937500000000e-01 2.09218705550326e-01 1.87365945959632e-02 
6.00405092592593e-01 2.08756329682414e-01 1.84584453195989e-02 
6.14872685185185e-01 2.08271345065008e-01 1.98316254486869e-02 
6.29340277777778e-01 2.07750186195046e-01 2.11213526864724e-02 
6.43807870370370e-01 2.07219381370848e-01 2.17411985961020e-02 
6.58275462962963e-01 2.06689029723980e-01 2.22936446532286e-02 
6.72743055555556e-01 2.06153680883086e-01 2.27539546085509e-02 
6.87210648148148e-01 2.05624419750358e-01 2.17438253275943e-02 
7.01678240740741e-01 2.05015871944223e-01 1.99089417846927e-02 
7.16145833333333e-01 2.04592203216100e-01 1.91232821022503e-02 
7.30613425925926e-01 2.04160168554318e-01 2.00939339147222e-02 
7.45081018518519e-01 2.03704135449541e-01 2.07765786374299e-02 
7.59548611111111e-01 2.03244403668490e-01 2.10732382485815e-02 
7.74016203703704e-01 2.02778588245339e-01 2.14405203003760e-02 
7.88483796296296e-01 2.02305965696384e-01 2.10888128197099e-02 
8.02951388888889e-01 2.01783153713742e-01 1.96239028147322e-02 
8.17418981481482e-01 2.01306867810943e-01 1.82345128818319e-02 
8.31886574074074e-01 2.00887588771350e-01 1.80062478745590e-02 
8.46354166666667e-01 2.00436595087720e-01 1.85018709989038e-02 
8.60821759259259e-01 1.99948398667504e-01 1.89850431418865e-02 
8.75289351851852e-01 1.99426819762313e-01 1.92930039799510e-02 
8.89756944444445e-01 1.98875827869395e-01 1.94563053335476e-02 
9.04224537037037e-01 1.98298658162292e-01 1.89087373700866e-02 
9.18692129629630e-01 1.97671420739353e-01 1.77368934743975e-02 
9.33159722222222e-01 1.97141506902603e-01 1.69589999258952e-02 
9.47627314814815e-01 1.96626236153780e-01 1.70220291269745e-02 
9.62094907407408e-01 1.96097627317024e-01 1.73081696321971e-02 
9.76562500000000e-01 1.95554002996016e-01 1.75624630940627e-02 
9.91030092592593e-01 1.94998764639370e-01 1.77318660139588e-02 
1.00549768518519e+00 1.94433753185654e-01 1.78539168113684e-02 
1.01996527777778e+00 1.93861020725661e-01 1.76916340315340e-02 
1.03443287037037e+00 1.93266601499608e-01 1.71374873382102e-02 
1.04890046296296e+00 1.92705821688684e-01 1.67141635057111e-02 
1.06336805555556e+00 1.92163063974084e-01 1.67405336502508e-02 
1.07783564814815e+00 1.91610092305447e-01 1.69060496780681e-02 
1.09230324074074e+00 1.91048287179751e-01 1.70369399736194e-02 
1.10677083333333e+00 1.90478488463049e-01 1.71476218474837e-02 
1.12123842592593e+00 1.89901126794205e-01 1.72509744277570e-02 
1.13570601851852e+00 1.89316175057344e-01 1.71955408468356e-02 
1.15017361111111e+00 1.88715630512264e-01 1.69735939641223e-02 
1.16464120370370e+00 1.88135691451731e-01 1.68997655484632e-02 
1.17910879629630e+00 1.87551287458558e-01 1.70147914130161e-02 
1.19357638888889e+00 1.86958129053942e-01 1.71387277364080e-02 
1.20804398148148e+00 1.86357131602971e-01 1.72491802424356e-02 
1.22251157407407e+00 1.85752118561503e-01 1.73564747149012e-02 
1.23697916666667e+00 1.85143127671587e-01 1.73980479098680e-02 
1.25144675925926e+00 1.84526721632470e-01 1.73726617946257e-02 
1.26591435185185e+00 1.83918617682198e-01 1.74131003748614e-02 
1.28038194444444e+00 1.83307141537958e-01 1.75243752713112e-02 
1.29484953703704e+00 1.82691430322338e-01 1.76339441567574e-02 
1.30931712962963e+00 1.82072036218194e-01 1.77389261250310e-02 
1.32378472222222e+00 1.81450477973076e-01 1.78448706087996e-02 
1.33825231481481e+00 1.80826687619291e-01 1.79359422684637e-02 
1.35271990740741e+00 1.80199527492564e-01 1.79971536994066e-02 
1.36718750000000e+00 1.79572478998964e-01 1.80640277081931e-02 
1.38165509259259e+00 1.78946118960006e-01 1.81663721483826e-02 
1.39612268518519e+00 1.78317198559014e-01 1.82851056906346e-02 
1.41059027777778e+00 1.77685717697121e-01 1.84036852837733e-02 
1.42505787037037e+00 1.77051742581032e-01 1.85202316002873e-02 
1.43952546296296e+00 1.76415402834456e-01 1.86249619763821e-02 
1.45399305555556e+00 1.75776187002556e-01 1.87124400354479e-02 
1.46846064814815e+00 1.75136284383902e-01 1.88006588320005e-02 
1.48292824074074e+00 1.74495567757944e-01 1.89003858152194e-02 
1.49739583333333e+00 1.73852961022129e-01 1.90025906596505e-02 
1.51186342592593e+00 1.73208581313568e-01 1.91024613983928e-02 
1.52633101851852e+00 1.72562504953817e-01 1.92008325910221e-02 
1.54079861111111e+00 1.71914792218226e-01 1.92935830102872e-02 
1.55526620370370e+00 1.71265137566034e-01 1.93786359766532e-02 
1.56973379629630e+00 1.70614762544396e-01 1.94650590027985e-02 
1.58420138888889e+00 1.69963371307674e-01 1.95569675230704e-02 
1.59866898148148e+00 1.69310561445346e-01 1.96498638651815e-02 
1.61313657407407e+00 1.68656389722982e-01 1.97416787183944e-02 
1.62760416666667e+00 1.68000914207478e-01 1.98318858421923e-02 
1.64207175925926e+00 1.67344139816349e-01 1.99184406888072e-02 
1.65653935185185e+00 1.66686093747577e-01 2.00016783919348e-02 
1.67100694444444e+00 1.66027295866469e-01 2.00856628793429e-02 
1.68547453703704e+00 1.65367552277500e-01 2.01711619728504e-02 
1.69994212962963e+00 1.64706770292714e-01 2.02560837150337e-02 
1.71440972222222e+00 1.64045311698904e-01 2.03396200109179e-02 
1.72887731481482e+00 1.63383553676900e-01 2.04216419994017e-02 
1.74334490740741e+00 1.62721568415773e-01 2.05021177777557e-02 
1.75781250000000e+00 1.62059426736383e-01 2.05810658693213e-02 
1.77228009259259e+00 1.61397198297484e-01 2.06585089788876e-02 
1.78674768518519e+00 1.60734951295825e-01 2.07344703897997e-02 
1.80121527777778e+00 1.60072752769909e-01 2.08088739583471e-02 
1.81568287037037e+00 1.59410675874529e-01 2.08814722993620e-02 
1.83015046296296e+00 1.58748803335296e-01 2.09520456548863e-02 
1.84461805555556e+00 1.58087219517332e-01 2.10205738271506e-02 
1.85908564814815e+00 1.57426006168816e-01 2.10871217524889e-02 
1.87355324074074e+00 1.56765242563163e-01 2.11517337684714e-02 
1.88802083333333e+00 1.56105006162146e-01 2.12144462137477e-02 
1.90248842592593e+00 1.55445372501915e-01 2.12753194762517e-02 
1.91695601851852e+00 1.54785986123148e-01 2.13343680461235e-02 
1.93142361111111e+00 1.54126707314726e-01 2.13915957462889e-02 
1.94589120370370e+00 1.53467603999805e-01 2.14470281074596e-02 
1.96035879629630e+00 1.52808742604804e-01 2.15006773435138e-02 
1.97482638888889e+00 1.52150186141576e-01 2.15525228740187e-02 
1.98929398148148e+00 1.51491998448999e-01 2.16025501958970e-02 
2.00376157407407e+00 1.50834245555037e-01 2.16507802616695e-02 
2.01822916666667e+00 1.50176992341470e-01 2.16972365702789e-02 
2.03269675925926e+00 1.49520302546370e-01 2.17419283366739e-02 
2.04716435185185e+00 1.48864238992882e-01 2.17848755472216e-02 
2.06163194444444e+00 1.48208863048664e-01 2.18261075645685e-02 
2.07609953703704e+00 1.47554234766020e-01 2.18656532598544e-02 
2.09056712962963e+00 1.46900412793586e-01 2.19035444607190e-02 
2.10503472222222e+00 1.46247454305905e-01 2.19398246739445e-02 
2.11950231481481e+00 1.45594837047016e-01 2.19744644627790e-02 
2.13396990740741e+00 1.44942512584161e-01 2.20074441262416e-02 
2.14843750000000e+00 1.44290535099118e-01 2.20387876273008e-02 
2.16290509259259e+00 1.43638957582262e-01 2.20685227447536e-02 
2.17737268518519e+00 1.42987831934692e-01 2.20966706740408e-02 
2.19184027777778e+00 1.42337209307506e-01 2.21232364235860e-02 
2.20630787037037e+00 1.41687140720543e-01 2.21481699135238e-02 
2.22077546296296e+00 1.41037620097523e-01 2.21713744316429e-02 
2.23524305555556e+00 1.40388699679156e-01 2.21927926911984e-02 
2.24971064814815e+00 1.39740436348712e-01 2.22124025064914e-02 
2.26417824074074e+00 1.39092886777704e-01 2.22302013892197e-02 
2.27864583333333e+00 1.38446106728522e-01 2.22462158917092e-02 
2.29311342592593e+00 1.37800150657329e-01 2.22604799407766e-02 
2.30758101851852e+00 1.37155072368705e-01 2.22730178033360e-02 
2.32204861111111e+00 1.36510951993930e-01 2.22838490852161e-02 
2.33651620370370e+00 1.35867840935458e-01 2.22930022392008e-02 
2.35098379629630e+00 1.35225789323052e-01 2.23005076582587e-02 
2.36545138888889e+00 1.34584846168472e-01 2.23063923562054e-02 
2.37991898148148e+00 1.33945059423347e-01 2.23106870480569e-02 
2.39438657407407e+00 1.33306475705482e-01 2.23134206774449e-02 
2.40885416666667e+00 1.32669301256355e-01 2.23145560690803e-02 
2.42332175925926e+00 1.32034857383556e-01 2.23141122408556e-02 
2.43778935185185e+00 1.31403188210443e-01 2.23121643337473e-02 
2.45225694444444e+00 1.30774336575921e-01 2.23087367461102e-02 
2.46672453703704e+00 1.30148344079483e-01 2.23038528498690e-02 
2.48119212962963e+00 1.29525251119043e-01 2.22975369398650e-02 
2.49565972222222e+00 1.28905096823857e-01 2.22898275192138e-02 
2.51012731481482e+00 1.28287618210524e-01 2.22807967665537e-02 
2.52459490740741e+00 1.27671649568771e-01 2.22704415763300e-02 
2.53906250000000e+00 1.27057228887768e-01 2.22587151132363e-02 
2.55353009259259e+00 1.26444393158987e-01 2.22456429754106e-02 
2.56799768518519e+00 1.25833178463929e-01 2.22312490230926e-02 
2.58246527777778e+00 1.25223619991603e-01 2.22155646662595e-02 
2.59693287037037e+00 1.24615751593086e-01 2.21986285150709e-02 
2.61140046296296e+00 1.24009631314622e-01 2.21804664306456e-02 
2.62586805555556e+00 1.23405353967411e-01 2.21610986843356e-02 
2.64033564814815e+00 1.22802950420105e-01 2.21405507445626e-02 
2.65480324074074e+00 1.22202450711949e-01 2.21188442208248e-02 
2.66927083333333e+00 1.21603884083126e-01 2.20960001824775e-02 
2.68373842592593e+00 1.21007278984781e-01 2.20720404754991e-02 
2.69820601851852e+00 1.20412663036593e-01 2.20469948541837e-02 
2.71267361111111e+00 1.19820062809278e-01 2.20209121294361e-02 
2.72714120370370e+00 1.19229503119968e-01 2.19938449870844e-02 
2.74160879629630e+00 1.18641007114032e-01 2.19658249829487e-02 
2.75607638888889e+00 1.18054597254352e-01 2.19368695820237e-02 
2.77054398148148e+00 1.17470295385256e-01 2.19069951751273e-02 
2.78501157407407e+00 1.16888122743284e-01 2.18762112315852e-02 
2.79947916666667e+00 1.16308100337153e-01 2.18445257383799e-02 
2.81394675925926e+00 1.15729928036911e-01 2.18119520061542e-02 
2.82841435185185e+00 1.15153257372240e-01 2.17784656729086e-02 
2.84288194444444e+00 1.14578113506541e-01 2.17440006246919e-02 
2.85734953703704e+00 1.14004521914703e-01 2.17085074572590e-02 
2.87181712962963e+00 1.13432508692811e-01 2.16719788779229e-02 
2.88628472222222e+00 1.12862099306629e-01 2.16344312915721e-02 
2.90075231481482e+00 1.12293318793675e-01 2.15958768909406e-02 
2.91521990740741e+00 1.11726198154246e-01 2.15563313177443e-02 
2.92968750000000e+00 1.11160766532482e-01 2.15158146978713e-02 
2.94415509259259e+00 1.10597047259027e-01 2.14743468626552e-02 
2.95862268518519e+00 1.10035063068206e-01 2.14319455674172e-02 
2.97309027777778e+00 1.09474836170367e-01 2.13886278124660e-02 
2.98755787037037e+00 1.08916388218350e-01 2.13444158244386e-02 
3.00202546296296e+00 1.08359740067263e-01 2.12993386099511e-02 
3.01649305555556e+00 1.07804894895146e-01 2.12534210861952e-02 
3.03096064814815e+00 1.07251862643782e-01 2.12067084015030e-02 
3.04542824074074e+00 1.06700658417084e-01 2.11593008297032e-02 
3.05989583333333e+00 1.06151296291706e-01 2.11112944853942e-02 
3.07436342592593e+00 1.05603788578683e-01 2.10627267527115e-02 
3.08883101851852e+00 1.05058147280543e-01 2.10136053342312e-02 
3.10329861111111e+00 1.04514384207889e-01 2.09639394642127e-02 
3.11776620370370e+00 1.03972504325860e-01 2.09137455315175e-02 
3.13223379629630e+00 1.03432516124149e-01 2.08630396998444e-02 
3.14670138888889e+00 1.02894430105257e-01 2.08118344011363e-02 
3.16116898148148e+00 1.02358256425941e-01 2.07601408719422e-02 
3.17563657407407e+00 1.01824004912617e-01 2.07079716154858e-02 
3.19010416666667e+00 1.01291684967506e-01 2.06553459389561e-02 
3.20457175925926e+00 1.00761305316930e-01 2.06022866088044e-02 
3.21903935185185e+00 1.00233436021719e-01 2.05488166419983e-02 
3.23350694444444e+00 9.97082071930003e-02 2.04949719725439e-02 
3.24797453703704e+00 9.91856244093119e-02 2.04406883792266e-02 
3.26244212962963e+00 9.86656937020525e-02 2.03859096003610e-02 
3.27690972222222e+00 9.81484215272216e-02 2.03306302183380e-02 
3.29137731481482e+00 9.76338140186016e-02 2.02748570716359e-02 
3.30584490740741e+00 9.71218770943036e-02 2.02186308911181e-02 
3.32031250000000e+00 9.66116279323994e-02 2.01620262387702e-02 
3.33478009259259e+00 9.61029720674836e-02 2.01049846338961e-02 
3.34924768518519e+00 9.55959199331602e-02 2.00475089222885e-02 
3.36371527777778e+00 9.50904816753189e-02 1.99896097125941e-02 
3.37818287037037e+00 9.45866671611359e-02 1.99312961741321e-02 
3.39265046296296e+00 9.40844860533825e-02 1.98725743474216e-02 
3.40711805555556e+00 9.35839478900841e-02 1.98134544053893e-02 
3.42158564814815e+00 9.30849877195710e-02 1.97539603251743e-02 
3.43605324074074e+00 9.25876132713839e-02 1.96941315077855e-02 
3.45052083333333e+00 9.20918309484847e-02 1.96340340896947e-02 
3.46498842592593e+00 9.15976463026590e-02 1.95737094570060e-02 
3.47945601851852e+00 9.11050645207119e-02 1.95131663649888e-02 
3.49392361111111e+00 9.06140907086497e-02 1.94524068030024e-02 
3.50839120370370e+00 9.01247293084066e-02 1.93914319210162e-02 
3.52285879629630e+00 8.96369780489952e-02 1.93302441409742e-02 
3.53732638888889e+00 8.91508419494356e-02 1.92688475204378e-02 
3.55179398148148e+00 8.86663258576643e-02 1.92072484259323e-02 
3.56626157407407e+00 8.81834344615041e-02 1.91454529614123e-02 
3.58072916666667e+00 8.77021722907016e-02 1.90834703277113e-02 
3.59519675925926e+00 8.72225435387892e-02 1.90213155630091e-02 
3.60966435185185e+00 8.67445492582260e-02 1.89590054382653e-02 
3.62413194444445e+00 8.62681794791963e-02 1.88965728777889e-02 
3.63859953703704e+00 8.57934372412483e-02 1.88340600020270e-02 
3.65306712962963e+00 8.53203244014444e-02 1.87714821311354e-02 
3.66753472222222e+00 8.48488423677397e-02 1.87088380837639e-02 
3.68200231481482e+00 8.43789924482660e-02 1.86461301295512e-02 
3.69646990740741e+00 8.39107759416830e-02 1.85833598223534e-02 
3.71093750000000e+00 8.34441088419815e-02 1.85205382831647e-02 
3.72540509259259e+00 8.29787458490297e-02 1.84576688094450e-02 
3.73987268518519e+00 8.25146907759361e-02 1.83947122134965e-02 
3.75434027777778e+00 8.20519480414902e-02 1.83316536516614e-02 
3.76880787037037e+00 8.15905222280112e-02 1.82684924595369e-02 
3.78327546296296e+00 8.11304177978959e-02 1.82052335333263e-02 
3.79774305555556e+00 8.06716390917453e-02 1.81418975120014e-02 
3.81221064814815e+00 8.02142130667392e-02 1.80785821743136e-02 
3.82667824074074e+00 7.97581835489841e-02 1.80154719114911e-02 
3.84114583333333e+00 7.93035429024101e-02 1.79527365375015e-02 
3.85561342592593e+00 7.88502809873802e-02 1.78904569646704e-02 
3.87008101851852e+00 7.83983870167928e-02 1.78286494529502e-02 
3.88454861111111e+00 7.79478503188142e-02 1.77673090133611e-02 
3.89901620370370e+00 7.74986603318898e-02 1.77064315116965e-02 
3.91348379629630e+00 7.70507812101408e-02 1.76460115707257e-02 
3.92795138888889e+00 7.66041696684175e-02 1.75860703268982e-02 
3.94241898148148e+00 7.61588145126890e-02 1.75266697218407e-02 
3.95688657407407e+00 7.57147025602992e-02 1.74678539513498e-02 
3.97135416666667e+00 7.52718202898591e-02 1.74096253811144e-02 
3.98582175925926e+00 7.48301543494059e-02 1.73519747829528e-02 
4.00028935185185e+00 7.43896916487751e-02 1.72948092817719e-02 
4.01475694444444e+00 7.39505411282634e-02 1.72379138286042e-02 
4.02922453703704e+00 7.35128077803510e-02 1.71812017903165e-02 
4.04369212962963e+00 7.30764872275527e-02 1.71247787404644e-02 
4.05815972222222e+00 7.26415705767004e-02 1.70687046754708e-02 
4.07262731481481e+00 7.22080491451031e-02 1.70129714358833e-02 
4.08709490740741e+00 7.17759143690714e-02 1.69575745587646e-02 
4.10156250000000e+00 7.13451577940494e-02 1.69025331969981e-02 
4.11603009259259e+00 7.09154399057502e-02 1.68478938514953e-02 
4.13049768518519e+00 7.04865409318227e-02 1.67935916952846e-02 
4.14496527777778e+00 7.00584577082924e-02 1.67394975065704e-02 
4.15943287037037e+00 6.96311898382247e-02 1.66855553895170e-02 
4.17390046296296e+00 6.92047370212413e-02 1.66317623289103e-02 
4.18836805555556e+00 6.87790987046073e-02 1.65781064587173e-02 
4.20283564814815e+00 6.83542718645050e-02 1.65245536576297e-02 
4.21730324074074e+00 6.79306240543701e-02 1.64710843280447e-02 
4.23177083333333e+00 6.75083123925055e-02 1.64177550346325e-02 
4.24623842592593e+00 6.70873321907534e-02 1.63645880841997e-02 
4.26070601851852e+00 6.66676795949348e-02 1.63115814718137e-02 
4.27517361111111e+00 6.62493505656580e-02 1.62587379209571e-02 
4.28964120370370e+00 6.58323411099657e-02 1.62060545683525e-02 
4.30410879629630e+00 6.54166473386775e-02 1.61535073906530e-02 
4.31857638888889e+00 6.50022728667352e-02 1.61010798288001e-02 
4.33304398148148e+00 6.45892163509207e-02 1.60488376242757e-02 
4.34751157407407e+00 6.41774715771295e-02 1.59968742383097e-02 
4.36197916666667e+00 6.37670305728101e-02 1.59452211892657e-02 
4.37644675925926e+00 6.33578854774810e-02 1.58938742619218e-02 
4.39091435185185e+00 6.29500285360243e-02 1.58428294751685e-02 
4.40538194444444e+00 6.25434520932187e-02 1.57919869955455e-02 
4.41984953703704e+00 6.21381384087970e-02 1.57411853999339e-02 
4.43431712962963e+00 6.17340860701864e-02 1.56903842459579e-02 
4.44878472222222e+00 6.13312944602318e-02 1.56396036915988e-02 
4.46325231481482e+00 6.09297634453882e-02 1.55888406432243e-02 
4.47771990740741e+00 6.05294928189082e-02 1.55380967181591e-02 
4.49218750000000e+00 6.01304823626422e-02 1.54873724216046e-02 
