Energy(eV)           EEDF(eV^-(3/2))      Anisotropy(eV^-(3/2))
8.68055555555556e-03 2.15119405689629e-01 -1.95044988033275e-03 
2.60416666666667e-02 2.15148730366652e-01 -8.46446556248461e-04 
4.34027777777778e-02 2.15174434791066e-01 -2.30661000382786e-04 
6.07638888888889e-02 2.15197121609513e-01 1.30804394560953e-04 
7.81250000000000e-02 2.15216553631062e-01 3.98047954926826e-04 
9.54861111111111e-02 2.15232549030558e-01 6.35775038475170e-04 
1.12847222222222e-01 2.15244888416950e-01 8.54953225868776e-04 
1.30208333333333e-01 2.15253390951267e-01 1.06736995509633e-03 
1.47569444444444e-01 2.15257689581369e-01 1.90403192302892e-03 
1.64930555555556e-01 2.15237406513346e-01 3.31582991774400e-03 
1.82291666666667e-01 2.15190133770875e-01 4.07079573377067e-03 
1.99652777777778e-01 2.15136232857812e-01 4.38100556237040e-03 
2.17013888888889e-01 2.15069558531828e-01 4.83762080293968e-03 
2.34375000000000e-01 2.14990223388087e-01 5.07297199548879e-03 
2.51736111111111e-01 2.14906185666772e-01 5.12685982083516e-03 
2.69097222222222e-01 2.14816445833914e-01 6.67741005261654e-03 
2.86458333333333e-01 2.14655672190686e-01 9.63897436991065e-03 
3.03819444444445e-01 2.14419614754324e-01 1.11065310400128e-02 
3.21180555555556e-01 2.14175289437910e-01 1.12513575376626e-02 
3.38541666666667e-01 2.13897112811138e-01 1.14489414231640e-02 
3.55902777777778e-01 2.13625623450951e-01 1.14715406029171e-02 
3.73263888888889e-01 2.13353143651125e-01 1.14096350963224e-02 
3.90625000000000e-01 2.13073604963819e-01 1.30105095189553e-02 
4.07986111111111e-01 2.12701284415596e-01 1.60951710504648e-02 
4.25347222222222e-01 2.12239369227676e-01 1.80833339869438e-02 
4.42708333333333e-01 2.11742196335836e-01 1.82692128309855e-02 
4.60069444444445e-01 2.11150279775653e-01 1.72271631263818e-02 
4.77430555555556e-01 2.10695722559942e-01 1.62357143251580e-02 
4.94791666666667e-01 2.10243805624056e-01 1.61819268104915e-02 
5.12152777777778e-01 2.09784877673250e-01 1.73802531261012e-02 
5.29513888888889e-01 2.09252149072572e-01 1.98514825133608e-02 
5.46875000000000e-01 2.08638610601208e-01 2.14887301755601e-02 
5.64236111111111e-01 2.07999726497310e-01 2.07634638386505e-02 
5.81597222222222e-01 2.07263286798894e-01 1.88630057953165e-02 
5.98958333333333e-01 2.06747149050295e-01 1.76060552731065e-02 
6.16319444444445e-01 2.06232015647097e-01 1.84236043191391e-02 
6.33680555555556e-01 2.05682557846497e-01 2.01409373236874e-02 
6.51041666666667e-01 2.05092268306282e-01 2.14030081342363e-02 
6.68402777777778e-01 2.04498539878733e-01 2.20012475438644e-02 
6.85763888888889e-01 2.03904627344867e-01 2.12306234231225e-02 
7.03125000000000e-01 2.03230083926185e-01 1.94623183310841e-02 
7.20486111111111e-01 2.02764775700033e-01 1.84892945702628e-02 
7.37847222222222e-01 2.02290776346050e-01 1.91324385087761e-02 
7.55208333333333e-01 2.01795830544679e-01 1.98634528595444e-02 
7.72569444444445e-01 2.01287876292032e-01 2.03333193688150e-02 
7.89930555555556e-01 2.00772998283701e-01 1.97259982050179e-02 
8.07291666666667e-01 2.00184114027103e-01 1.81038877152787e-02 
8.24652777777778e-01 1.99713911015833e-01 1.68933591362659e-02 
8.42013888888889e-01 1.99247483330668e-01 1.69543137964353e-02 
8.59375000000000e-01 1.98743178757677e-01 1.74301126495118e-02 
8.76736111111111e-01 1.98192658050308e-01 1.79544572665243e-02 
8.94097222222222e-01 1.97598008635444e-01 1.81012724413414e-02 
9.11458333333334e-01 1.96959316299870e-01 1.75541039325795e-02 
9.28819444444445e-01 1.96330061474651e-01 1.68476862149922e-02 
9.46180555555556e-01 1.95753118932632e-01 1.66711604959587e-02 
9.63541666666667e-01 1.95163126669789e-01 1.69056565061265e-02 
9.80902777777778e-01 1.94555803751241e-01 1.72178361807094e-02 
9.98263888888889e-01 1.93929310253331e-01 1.74875251548545e-02 
1.01562500000000e+00 1.93288733989815e-01 1.74956770508423e-02 
1.03298611111111e+00 1.92629393813236e-01 1.71509120649604e-02 
1.05034722222222e+00 1.91985088591351e-01 1.68261199207927e-02 
1.06770833333333e+00 1.91360128748453e-01 1.68577313610972e-02 
1.08506944444444e+00 1.90721687606129e-01 1.70651887895314e-02 
1.10243055555556e+00 1.90069911839845e-01 1.72480459067949e-02 
1.11979166666667e+00 1.89406322246190e-01 1.74003685019550e-02 
1.13715277777778e+00 1.88731579664380e-01 1.74012748243783e-02 
1.15451388888889e+00 1.88039573812379e-01 1.72669374985268e-02 
1.17187500000000e+00 1.87364759192858e-01 1.72861717288748e-02 
1.18923611111111e+00 1.86677476261414e-01 1.74604394780578e-02 
1.20659722222222e+00 1.85977491606784e-01 1.76225443383388e-02 
1.22395833333333e+00 1.85270491371408e-01 1.77449451011043e-02 
1.24131944444444e+00 1.84556284739997e-01 1.77958438010410e-02 
1.25868055555556e+00 1.83838850931078e-01 1.78260771030512e-02 
1.27604166666667e+00 1.83124623419513e-01 1.79285722497576e-02 
1.29340277777778e+00 1.82403945859930e-01 1.80778234166260e-02 
1.31076388888889e+00 1.81677199339337e-01 1.82215633635553e-02 
1.32812500000000e+00 1.80946888140940e-01 1.83620902024471e-02 
1.34548611111111e+00 1.80212967249754e-01 1.84780365910558e-02 
1.36284722222222e+00 1.79473834396927e-01 1.85702725345825e-02 
1.38020833333333e+00 1.78736777169609e-01 1.86941485002120e-02 
1.39756944444444e+00 1.77995746618245e-01 1.88468889681025e-02 
1.41493055555556e+00 1.77250788261206e-01 1.89980992360696e-02 
1.43229166666667e+00 1.76502076419014e-01 1.91442196715391e-02 
1.44965277777778e+00 1.75749732425346e-01 1.92764211850390e-02 
1.46701388888889e+00 1.74993805622396e-01 1.93978665501062e-02 
1.48437500000000e+00 1.74236580941864e-01 1.95254240030726e-02 
1.50173611111111e+00 1.73476374679069e-01 1.96571157254036e-02 
1.51909722222222e+00 1.72713375227404e-01 1.97855531501199e-02 
1.53645833333333e+00 1.71947703471032e-01 1.99087871817509e-02 
1.55381944444444e+00 1.71179227857385e-01 2.00248264806732e-02 
1.57118055555556e+00 1.70408830405423e-01 2.01399950817072e-02 
1.58854166666667e+00 1.69636588169241e-01 2.02588122155586e-02 
1.60590277777778e+00 1.68862069445910e-01 2.03781435009164e-02 
1.62326388888889e+00 1.68085378397536e-01 2.04955284949686e-02 
1.64062500000000e+00 1.67306590655915e-01 2.06087716418221e-02 
1.65798611111111e+00 1.66525676191919e-01 2.07178804784753e-02 
1.67534722222222e+00 1.65743361528601e-01 2.08272723291546e-02 
1.69270833333333e+00 1.64959339631653e-01 2.09374303624072e-02 
1.71006944444444e+00 1.64173678767647e-01 2.10459857458893e-02 
1.72743055555556e+00 1.63387224136053e-01 2.11523556979018e-02 
1.74479166666667e+00 1.62600097987248e-01 2.12564458041214e-02 
1.76215277777778e+00 1.61812419423914e-01 2.13582973456001e-02 
1.77951388888889e+00 1.61024305117648e-01 2.14579442516493e-02 
1.79687500000000e+00 1.60235869413389e-01 2.15553562181804e-02 
1.81423611111111e+00 1.59447230336677e-01 2.16502753262576e-02 
1.83159722222222e+00 1.58658521824966e-01 2.17423704562089e-02 
1.84895833333333e+00 1.57869881736079e-01 2.18315712694395e-02 
1.86631944444444e+00 1.57081443938413e-01 2.19179591288299e-02 
1.88368055555556e+00 1.56293338694059e-01 2.20015890900166e-02 
1.90104166666667e+00 1.55505693157381e-01 2.20825402867755e-02 
1.91840277777778e+00 1.54718163470047e-01 2.21608556976484e-02 
1.93576388888889e+00 1.53930498833890e-01 2.22365536180230e-02 
1.95312500000000e+00 1.53142812048333e-01 2.23096710460872e-02 
1.97048611111111e+00 1.52355212070131e-01 2.23801678181158e-02 
1.98784722222222e+00 1.51567798987279e-01 2.24479392401958e-02 
2.00520833333333e+00 1.50780688778651e-01 2.25129737221080e-02 
2.02256944444445e+00 1.49993995372871e-01 2.25753226198425e-02 
2.03993055555556e+00 1.49207829455583e-01 2.26350191877032e-02 
2.05729166666667e+00 1.48422299292603e-01 2.26921044651953e-02 
2.07465277777778e+00 1.47637510399566e-01 2.27466251522176e-02 
2.09201388888889e+00 1.46853565852936e-01 2.27986283364271e-02 
2.10937500000000e+00 1.46070529161689e-01 2.28481459494173e-02 
2.12673611111111e+00 1.45287613113489e-01 2.28950788031378e-02 
2.14409722222222e+00 1.44504917436826e-01 2.29394055141913e-02 
2.16145833333333e+00 1.43722539199408e-01 2.29811787004443e-02 
2.17881944444445e+00 1.42940573207621e-01 2.30204406981741e-02 
2.19618055555556e+00 1.42159112415279e-01 2.30571870109847e-02 
2.21354166666667e+00 1.41378205199592e-01 2.30912979628505e-02 
2.23090277777778e+00 1.40597834014890e-01 2.31225966618684e-02 
2.24826388888889e+00 1.39818104912027e-01 2.31510043078859e-02 
2.26562500000000e+00 1.39039121647198e-01 2.31765344279719e-02 
2.28298611111111e+00 1.38260986215991e-01 2.31992282128510e-02 
2.30034722222222e+00 1.37483798190991e-01 2.32191366809419e-02 
2.31770833333333e+00 1.36707692587076e-01 2.32363021270791e-02 
2.33506944444445e+00 1.35932799832132e-01 2.32507639776295e-02 
2.35243055555556e+00 1.35159213358219e-01 2.32625721257678e-02 
2.36979166666667e+00 1.34387024102169e-01 2.32717770671401e-02 
2.38715277777778e+00 1.33616320844583e-01 2.32784301418919e-02 
2.40451388888889e+00 1.32847189836400e-01 2.32825244132013e-02 
2.42187500000000e+00 1.32081243117431e-01 2.32840889757040e-02 
2.43923611111111e+00 1.31319045725153e-01 2.32832165442118e-02 
2.45659722222222e+00 1.30560677698568e-01 2.32799680169409e-02 
2.47395833333333e+00 1.29806216397429e-01 2.32743864769695e-02 
2.49131944444445e+00 1.29055736690155e-01 2.32665146326219e-02 
2.50868055555556e+00 1.28309310846770e-01 2.32564690096403e-02 
2.52604166666667e+00 1.27564825446793e-01 2.32442739204089e-02 
2.54340277777778e+00 1.26822352021138e-01 2.32298589385702e-02 
2.56076388888889e+00 1.26081960207105e-01 2.32132682110321e-02 
2.57812500000000e+00 1.25343717739458e-01 2.31945461837432e-02 
2.59548611111111e+00 1.24607690427439e-01 2.31737469755879e-02 
2.61284722222222e+00 1.23873995806747e-01 2.31509252953462e-02 
2.63020833333333e+00 1.23142866642978e-01 2.31261342422827e-02 
2.64756944444445e+00 1.22414361425901e-01 2.30994285155971e-02 
2.66493055555556e+00 1.21688536837983e-01 2.30708481115697e-02 
2.68229166666667e+00 1.20965447894814e-01 2.30404308257864e-02 
2.69965277777778e+00 1.20245147970484e-01 2.30082283435127e-02 
2.71701388888889e+00 1.19527688495021e-01 2.29743220877832e-02 
2.73437500000000e+00 1.18813117449245e-01 2.29387957965704e-02 
2.75173611111111e+00 1.18101479563209e-01 2.29017017250713e-02 
2.76909722222222e+00 1.17392818112571e-01 2.28630718872535e-02 
2.78645833333333e+00 1.16687175072020e-01 2.28229303384494e-02 
2.80381944444445e+00 1.15984591501816e-01 2.27813017186262e-02 
2.82118055555556e+00 1.15284420399318e-01 2.27382058366304e-02 
2.83854166666667e+00 1.14586439448540e-01 2.26935755915005e-02 
2.85590277777778e+00 1.13890696979034e-01 2.26473369138669e-02 
2.87326388888889e+00 1.13197240569679e-01 2.25994824332626e-02 
2.89062500000000e+00 1.12506116510627e-01 2.25500439113174e-02 
2.90798611111111e+00 1.11817370043713e-01 2.24990571820537e-02 
2.92534722222222e+00 1.11131073140391e-01 2.24465700005049e-02 
2.94270833333333e+00 1.10447268695653e-01 2.23926261940733e-02 
2.96006944444445e+00 1.09765997252223e-01 2.23372565312203e-02 
2.97743055555556e+00 1.09087298275771e-01 2.22804892879671e-02 
2.99479166666667e+00 1.08411210205862e-01 2.22223621290042e-02 
3.01215277777778e+00 1.07737756442439e-01 2.21629320318640e-02 
3.02951388888889e+00 1.07066918240858e-01 2.21022912531072e-02 
3.04687500000000e+00 1.06398722454915e-01 2.20405766732087e-02 
3.06423611111111e+00 1.05733194684872e-01 2.19779046822206e-02 
3.08159722222222e+00 1.05070358859976e-01 2.19143181393342e-02 
3.09895833333333e+00 1.04410238393678e-01 2.18498356518225e-02 
3.11631944444445e+00 1.03752845950798e-01 2.17844841505533e-02 
3.13368055555556e+00 1.03098190573980e-01 2.17182923212143e-02 
3.15104166666667e+00 1.02446293050439e-01 2.16512841260231e-02 
3.16840277777778e+00 1.01797173409831e-01 2.15834809741456e-02 
3.18576388888889e+00 1.01150850949757e-01 2.15149083277208e-02 
3.20312500000000e+00 1.00507343948217e-01 2.14456059317112e-02 
3.22048611111111e+00 9.98673438110130e-02 2.13756068974018e-02 
3.23784722222222e+00 9.92311783870699e-02 2.13049351763653e-02 
3.25520833333333e+00 9.85988604922378e-02 2.12335241558785e-02 
3.27256944444445e+00 9.79704024041625e-02 2.11613383363447e-02 
3.28993055555556e+00 9.73458156043300e-02 2.10883947490327e-02 
3.30729166666667e+00 9.67251109761357e-02 2.10147419789520e-02 
3.32465277777778e+00 9.61068421300336e-02 2.09404983332964e-02 
3.34201388888889e+00 9.54909016044479e-02 2.08655910237128e-02 
3.35937500000000e+00 9.48773083271980e-02 2.07900312041098e-02 
3.37673611111111e+00 9.42660806282512e-02 2.07138380691111e-02 
3.39409722222222e+00 9.36572362747046e-02 2.06370273068808e-02 
3.41145833333333e+00 9.30507856823419e-02 2.05596172270176e-02 
3.42881944444445e+00 9.24467091804494e-02 2.04816632771923e-02 
3.44618055555556e+00 9.18450186909392e-02 2.04032497418831e-02 
3.46354166666667e+00 9.12457255428089e-02 2.03244431436215e-02 
3.48090277777778e+00 9.06488402288924e-02 2.02452709423822e-02 
3.49826388888889e+00 9.00543729452713e-02 2.01657421649467e-02 
3.51562500000000e+00 8.94623255441951e-02 2.00858646876423e-02 
3.53298611111111e+00 8.88726957284969e-02 2.00056468450075e-02 
3.55034722222222e+00 8.82854931095659e-02 1.99250986128796e-02 
3.56770833333333e+00 8.77007269254041e-02 1.98442320360854e-02 
3.58506944444445e+00 8.71184060542404e-02 1.97630621755571e-02 
3.60243055555556e+00 8.65385387995496e-02 1.96816156564014e-02 
3.61979166666667e+00 8.59611063568239e-02 1.95999229590644e-02 
3.63715277777778e+00 8.53861018413550e-02 1.95180018726860e-02 
3.65451388888889e+00 8.48135337110537e-02 1.94358893389808e-02 
3.67187500000000e+00 8.42434066121329e-02 1.93536430687501e-02 
3.68923611111111e+00 8.36757235930836e-02 1.92712915485201e-02 
3.70659722222222e+00 8.31104876083288e-02 1.91888410125890e-02 
3.72395833333333e+00 8.25473211273186e-02 1.91063267541256e-02 
3.74131944444445e+00 8.19861781911254e-02 1.90237181383814e-02 
3.75868055555556e+00 8.14270655995225e-02 1.89409862627054e-02 
3.77604166666667e+00 8.08699909809316e-02 1.88581190570904e-02 
3.79340277777778e+00 8.03149618743737e-02 1.87751302424334e-02 
3.81076388888889e+00 7.97619899440737e-02 1.86920964123282e-02 
3.82812500000000e+00 7.92111134243186e-02 1.86091939067204e-02 
3.84548611111111e+00 7.86623259392697e-02 1.85266628244282e-02 
3.86284722222222e+00 7.81156152915078e-02 1.84446801997100e-02 
3.88020833333333e+00 7.75709665986441e-02 1.83632963296819e-02 
3.89756944444445e+00 7.70283651314288e-02 1.82825051597030e-02 
3.91493055555556e+00 7.64877897297998e-02 1.82023067874431e-02 
3.93229166666667e+00 7.59492140412583e-02 1.81227178534319e-02 
3.94965277777778e+00 7.54126225881331e-02 1.80437929086744e-02 
3.96701388888889e+00 7.48779973452628e-02 1.79656062028426e-02 
3.98437500000000e+00 7.43453182822137e-02 1.78881839657448e-02 
4.00173611111111e+00 7.38145657162186e-02 1.78113973978011e-02 
4.01909722222222e+00 7.32859160861254e-02 1.77349288760298e-02 
4.03645833333333e+00 7.27594924296854e-02 1.76586141887235e-02 
4.05381944444445e+00 7.22352917127606e-02 1.75825968468029e-02 
4.07118055555556e+00 7.17133017175391e-02 1.75070384200708e-02 
4.08854166666667e+00 7.11935078062248e-02 1.74319755160103e-02 
4.10590277777778e+00 7.06758955449600e-02 1.73574363916424e-02 
4.12326388888889e+00 7.01598214384541e-02 1.72835105080161e-02 
4.14062500000000e+00 6.96451545805537e-02 1.72101056410129e-02 
4.15798611111111e+00 6.91318882492268e-02 1.71370637052307e-02 
4.17534722222222e+00 6.86200204439674e-02 1.70642865374392e-02 
4.19270833333333e+00 6.81095482057285e-02 1.69917272888885e-02 
4.21006944444445e+00 6.76005229565711e-02 1.69193266380963e-02 
4.22743055555556e+00 6.70936057720913e-02 1.68470478701588e-02 
4.24479166666667e+00 6.65887902290737e-02 1.67749937796409e-02 
4.26215277777778e+00 6.60860690401485e-02 1.67031865002311e-02 
4.27951388888889e+00 6.55854353434833e-02 1.66316229144534e-02 
4.29687500000000e+00 6.50868823422698e-02 1.65602894936172e-02 
4.31423611111111e+00 6.45904104084912e-02 1.64891409395983e-02 
4.33159722222222e+00 6.40960289756468e-02 1.64181666651938e-02 
4.34895833333333e+00 6.36037324421363e-02 1.63474730518014e-02 
4.36631944444445e+00 6.31135101306631e-02 1.62771840995214e-02 
4.38368055555556e+00 6.26253488819179e-02 1.62073375576234e-02 
4.40104166666667e+00 6.21392357130831e-02 1.61378474308505e-02 
4.41840277777778e+00 6.16551374393369e-02 1.60685000577558e-02 
4.43576388888889e+00 6.11730344901104e-02 1.59991666856184e-02 
4.45312500000000e+00 6.06929266266952e-02 1.59298967120334e-02 
4.47048611111111e+00 6.02148112815150e-02 1.58607296718499e-02 
4.48784722222222e+00 5.97386863243355e-02 1.57916589158350e-02 
4.50520833333333e+00 5.92645495898890e-02 1.57227052995139e-02 
4.52256944444445e+00 5.87923161565812e-02 1.56539306761222e-02 
4.53993055555556e+00 5.83219609509918e-02 1.55854397041562e-02 
4.55729166666667e+00 5.78534749048818e-02 1.55173666958423e-02 
4.57465277777778e+00 5.73868449992470e-02 1.54497787145696e-02 
4.59201388888889e+00 5.69220579261629e-02 1.53826757258292e-02 
4.60937500000000e+00 5.64591007140070e-02 1.53160187915033e-02 
4.62673611111111e+00 5.59979642883216e-02 1.52497227097203e-02 
4.64409722222222e+00 5.55386421241132e-02 1.51835972865657e-02 
4.66145833333333e+00 5.50811353790481e-02 1.51173872584068e-02 
4.67881944444445e+00 5.46254517418890e-02 1.50509813106475e-02 
4.69618055555556e+00 5.41715986513801e-02 1.49843627208701e-02 
4.71354166666667e+00 5.37195769719309e-02 1.49174199847351e-02 
4.73090277777778e+00 5.32693809471103e-02 1.48499915259750e-02 
4.74826388888889e+00 5.28210297252174e-02 1.47819940482925e-02 
4.76562500000000e+00 5.23745429211055e-02 1.47134153398141e-02 
4.78298611111111e+00 5.19299402779138e-02 1.46442632316583e-02 
4.80034722222222e+00 5.14872409567387e-02 1.45745470046984e-02 
4.81770833333333e+00 5.10464812790983e-02 1.45042703478431e-02 
4.83506944444445e+00 5.06076955836696e-02 1.44334648667855e-02 
4.85243055555556e+00 5.01709004019422e-02 1.43621843386954e-02 
4.86979166666667e+00 4.97361111469365e-02 1.42904700192420e-02 
4.88715277777778e+00 4.93033423382291e-02 1.42183434505666e-02 
4.90451388888889e+00 4.88726081023029e-02 1.41457987676166e-02 
4.92187500000000e+00 4.84439482336865e-02 1.40728224390267e-02 
4.93923611111111e+00 4.80173851507779e-02 1.39994457581689e-02 
4.95659722222222e+00 4.75929316093168e-02 1.39257126702767e-02 
4.97395833333333e+00 4.71705994855071e-02 1.38516406831156e-02 
4.99131944444445e+00 4.67504004705635e-02 1.37772402392591e-02 
5.00868055555556e+00 4.63323458112963e-02 1.37026150919581e-02 
5.02604166666667e+00 4.59159667675456e-02 1.36279626476327e-02 
5.04340277777778e+00 4.55012700963832e-02 1.35532562783233e-02 
5.06076388888889e+00 4.50882653606887e-02 1.34784318025585e-02 
5.07812500000000e+00 4.46769633030922e-02 1.34034756396577e-02 
5.09548611111111e+00 4.42673743686728e-02 1.33283958468956e-02 
5.11284722222222e+00 4.38595880726823e-02 1.32531915688566e-02 
5.13020833333333e+00 4.34538631070969e-02 1.31778768771027e-02 
5.14756944444445e+00 4.30502042568810e-02 1.31025364799545e-02 
5.16493055555556e+00 4.26486140534590e-02 1.30272218356737e-02 
5.18229166666667e+00 4.22490940853009e-02 1.29519514823796e-02 
5.19965277777778e+00 4.18516457180758e-02 1.28767422187263e-02 
5.21701388888889e+00 4.14562169082831e-02 1.28016471182927e-02 
5.23437500000000e+00 4.10627499969082e-02 1.27267236688196e-02 
5.25173611111111e+00 4.06712432141919e-02 1.26519862666793e-02 
5.26909722222222e+00 4.02816949400830e-02 1.25774312061470e-02 
5.28645833333333e+00 3.98941036096947e-02 1.25030581916544e-02 
5.30381944444445e+00 3.95084675999627e-02 1.24288616930423e-02 
5.32118055555556e+00 3.91246320964529e-02 1.23548488822179e-02 
5.33854166666667e+00 3.87425383396933e-02 1.22810095742932e-02 
5.35590277777778e+00 3.83621876444684e-02 1.22073301421369e-02 
5.37326388888889e+00 3.79835817820115e-02 1.21338021938811e-02 
5.39062500000000e+00 3.76067225489581e-02 1.20604279715583e-02 
