Energy(eV)           EEDF(eV^-(3/2))      Anisotropy(eV^-(3/2))
8.68055555555556e-03 1.95503945348686e-01 -1.91178998557579e-03 
2.60416666666667e-02 1.95528007788813e-01 -8.34636133951139e-04 
4.34027777777778e-02 1.95549098608455e-01 -2.26718933220717e-04 
6.07638888888889e-02 1.95567639537123e-01 1.39183018370529e-04 
7.81250000000000e-02 1.95583369041515e-01 4.14508924633486e-04 
9.54861111111111e-02 1.95596103997249e-01 6.61650860068253e-04 
1.12847222222222e-01 1.95605635401762e-01 8.90345014924943e-04 
1.30208333333333e-01 1.95611804766841e-01 1.11146371549871e-03 
1.47569444444444e-01 1.95614305420093e-01 1.79631356709965e-03 
1.64930555555556e-01 1.95600288842876e-01 2.90894321288071e-03 
1.82291666666667e-01 1.95568163487261e-01 3.53049546758116e-03 
1.99652777777778e-01 1.95530610850174e-01 3.82022084044736e-03 
2.17013888888889e-01 1.95483708850874e-01 4.22078046588248e-03 
2.34375000000000e-01 1.95427465603296e-01 4.45857455180080e-03 
2.51736111111111e-01 1.95366740162460e-01 4.56463530044307e-03 
2.69097222222222e-01 1.95300734048226e-01 5.79432862426191e-03 
2.86458333333333e-01 1.95188261908355e-01 8.08350623046913e-03 
3.03819444444445e-01 1.95026481678481e-01 9.25765135163507e-03 
3.21180555555556e-01 1.94857462290781e-01 9.44848321149198e-03 
3.38541666666667e-01 1.94663609567878e-01 9.67951529104104e-03 
3.55902777777778e-01 1.94472689316280e-01 9.78107334866010e-03 
3.73263888888889e-01 1.94279010574258e-01 9.81593345292688e-03 
3.90625000000000e-01 1.94078461283354e-01 1.10995945844375e-02 
4.07986111111111e-01 1.93816925483407e-01 1.34987953956839e-02 
4.25347222222222e-01 1.93496472808870e-01 1.50783034158708e-02 
4.42708333333333e-01 1.93151177154832e-01 1.53154603186047e-02 
4.60069444444445e-01 1.92737164227701e-01 1.46171004377195e-02 
4.77430555555556e-01 1.92412593737023e-01 1.39651205981716e-02 
4.94791666666667e-01 1.92087396262549e-01 1.40104627357110e-02 
5.12152777777778e-01 1.91755051545697e-01 1.49995169723035e-02 
5.29513888888889e-01 1.91373574347565e-01 1.69497510431882e-02 
5.46875000000000e-01 1.90938445216368e-01 1.82727973317452e-02 
5.64236111111111e-01 1.90484704340694e-01 1.78248886404215e-02 
5.81597222222222e-01 1.89954815542919e-01 1.64712408692365e-02 
5.98958333333333e-01 1.89573291330547e-01 1.56183495307111e-02 
6.16319444444445e-01 1.89190598893569e-01 1.63210710850127e-02 
6.33680555555556e-01 1.88785323558446e-01 1.77051301903582e-02 
6.51041666666667e-01 1.88353389341411e-01 1.87463576410319e-02 
6.68402777777778e-01 1.87918588383440e-01 1.92871486143995e-02 
6.85763888888889e-01 1.87483052106701e-01 1.88029346377114e-02 
7.03125000000000e-01 1.86981371087948e-01 1.75443716732161e-02 
7.20486111111111e-01 1.86625517535728e-01 1.69063119344829e-02 
7.37847222222222e-01 1.86262437238638e-01 1.74817399042232e-02 
7.55208333333333e-01 1.85884340002559e-01 1.81238808249205e-02 
7.72569444444445e-01 1.85496294156215e-01 1.85683693969773e-02 
7.89930555555556e-01 1.85102180670473e-01 1.82040800535410e-02 
8.07291666666667e-01 1.84644900161769e-01 1.70566593255663e-02 
8.24652777777778e-01 1.84267998281881e-01 1.62310766609202e-02 
8.42013888888889e-01 1.83890460419856e-01 1.63631666327735e-02 
8.59375000000000e-01 1.83482102072411e-01 1.68066108786739e-02 
8.76736111111111e-01 1.83037439060395e-01 1.72851135931180e-02 
8.94097222222222e-01 1.82557639281780e-01 1.74760223214363e-02 
9.11458333333334e-01 1.82039422311684e-01 1.71374260880613e-02 
9.28819444444445e-01 1.81520587654045e-01 1.66748890589024e-02 
9.46180555555556e-01 1.81038440529933e-01 1.66155581112620e-02 
9.63541666666667e-01 1.80544490739353e-01 1.68651436895669e-02 
9.80902777777778e-01 1.80036005555875e-01 1.71723911068582e-02 
9.98263888888889e-01 1.79511806580802e-01 1.74459082863784e-02 
1.01562500000000e+00 1.78975249699999e-01 1.75196618469027e-02 
1.03298611111111e+00 1.78419756451520e-01 1.73225441349932e-02 
1.05034722222222e+00 1.77870718629736e-01 1.71387587338916e-02 
1.06770833333333e+00 1.77334576448157e-01 1.72247719378163e-02 
1.08506944444444e+00 1.76786713441499e-01 1.74422010337256e-02 
1.10243055555556e+00 1.76227247062302e-01 1.76392275163918e-02 
1.11979166666667e+00 1.75657171624025e-01 1.78113922936028e-02 
1.13715277777778e+00 1.75076930901946e-01 1.78672167006441e-02 
1.15451388888889e+00 1.74479088540154e-01 1.78177290083717e-02 
1.17187500000000e+00 1.73892763403414e-01 1.78847706333763e-02 
1.18923611111111e+00 1.73295483718694e-01 1.80682217729219e-02 
1.20659722222222e+00 1.72687115096589e-01 1.82410959756834e-02 
1.22395833333333e+00 1.72072368607773e-01 1.83825822765429e-02 
1.24131944444444e+00 1.71450672560601e-01 1.84682813432435e-02 
1.25868055555556e+00 1.70824668081311e-01 1.85368527046173e-02 
1.27604166666667e+00 1.70200303904235e-01 1.86595023226489e-02 
1.29340277777778e+00 1.69570230627163e-01 1.88165618359084e-02 
1.31076388888889e+00 1.68934796923494e-01 1.89683046439596e-02 
1.32812500000000e+00 1.68296141273374e-01 1.91166205306969e-02 
1.34548611111111e+00 1.67654275834616e-01 1.92453031744504e-02 
1.36284722222222e+00 1.67007414919374e-01 1.93548726140314e-02 
1.38020833333333e+00 1.66361859069156e-01 1.94878722379324e-02 
1.39756944444444e+00 1.65712972433830e-01 1.96420408606635e-02 
1.41493055555556e+00 1.65060821693914e-01 1.97942109664249e-02 
1.43229166666667e+00 1.64405560648228e-01 1.99415865703982e-02 
1.44965277777778e+00 1.63747263333694e-01 2.00773849190803e-02 
1.46701388888889e+00 1.63085826664232e-01 2.02040071265753e-02 
1.48437500000000e+00 1.62423228928242e-01 2.03344435458694e-02 
1.50173611111111e+00 1.61758166821830e-01 2.04671496861172e-02 
1.51909722222222e+00 1.61090794076780e-01 2.05964514022441e-02 
1.53645833333333e+00 1.60421224129034e-01 2.07208140603959e-02 
1.55381944444444e+00 1.59749309400001e-01 2.08387060233697e-02 
1.57118055555556e+00 1.59075781606528e-01 2.09550138436820e-02 
1.58854166666667e+00 1.58400772951148e-01 2.10732315974240e-02 
1.60590277777778e+00 1.57723965704007e-01 2.11909887328930e-02 
1.62326388888889e+00 1.57045461163376e-01 2.13064406843453e-02 
1.64062500000000e+00 1.56365331143618e-01 2.14179382238036e-02 
1.65798611111111e+00 1.55683524551204e-01 2.15255062303660e-02 
1.67534722222222e+00 1.55000667010883e-01 2.16325679796057e-02 
1.69270833333333e+00 1.54316539747874e-01 2.17395113779960e-02 
1.71006944444444e+00 1.53631214047392e-01 2.18445443284508e-02 
1.72743055555556e+00 1.52945416427368e-01 2.19472585471182e-02 
1.74479166666667e+00 1.52259251372753e-01 2.20476030644760e-02 
1.76215277777778e+00 1.51572820293667e-01 2.21456303223779e-02 
1.77951388888889e+00 1.50886222178483e-01 2.22413842355307e-02 
1.79687500000000e+00 1.50199553757665e-01 2.23348590919937e-02 
1.81423611111111e+00 1.49512913799215e-01 2.24258635070861e-02 
1.83159722222222e+00 1.48826411781860e-01 2.25141350542527e-02 
1.84895833333333e+00 1.48140158472920e-01 2.25996187536869e-02 
1.86631944444444e+00 1.47454261967841e-01 2.26823897431303e-02 
1.88368055555556e+00 1.46768827353637e-01 2.27625055099247e-02 
1.90104166666667e+00 1.46083957040615e-01 2.28400437024106e-02 
1.91840277777778e+00 1.45399352042057e-01 2.29150470668045e-02 
1.93576388888889e+00 1.44714793005931e-01 2.29875394137610e-02 
1.95312500000000e+00 1.44030370578831e-01 2.30575627094653e-02 
1.97048611111111e+00 1.43346171939065e-01 2.31250910412462e-02 
1.98784722222222e+00 1.42662274882331e-01 2.31900423396768e-02 
2.00520833333333e+00 1.41978771374536e-01 2.32524126990523e-02 
2.02256944444445e+00 1.41295752013323e-01 2.33122434618203e-02 
2.03993055555556e+00 1.40613305059452e-01 2.33695557420575e-02 
2.05729166666667e+00 1.39931517041351e-01 2.34243860783795e-02 
2.07465277777778e+00 1.39250472204256e-01 2.34767819932307e-02 
2.09201388888889e+00 1.38570252760098e-01 2.35267910204261e-02 
2.10937500000000e+00 1.37890907105953e-01 2.35744443335492e-02 
2.12673611111111e+00 1.37211754773556e-01 2.36196566867482e-02 
2.14409722222222e+00 1.36532874725317e-01 2.36624176603450e-02 
2.16145833333333e+00 1.35854343777694e-01 2.37027785673239e-02 
2.17881944444445e+00 1.35176236904039e-01 2.37407816038133e-02 
2.19618055555556e+00 1.34498627560693e-01 2.37764308480421e-02 
2.21354166666667e+00 1.33821546761840e-01 2.38096352725876e-02 
2.23090277777778e+00 1.33144961866009e-01 2.38402559977827e-02 
2.24826388888889e+00 1.32468955055418e-01 2.38682375196495e-02 
2.26562500000000e+00 1.31793606020827e-01 2.38935990417861e-02 
2.28298611111111e+00 1.31118992999430e-01 2.39163796709246e-02 
2.30034722222222e+00 1.30445192382712e-01 2.39366241735926e-02 
2.31770833333333e+00 1.29772314365458e-01 2.39543649599915e-02 
2.33506944444445e+00 1.29100465406035e-01 2.39696304829559e-02 
2.35243055555556e+00 1.28429717755512e-01 2.39824631151707e-02 
2.36979166666667e+00 1.27760141761018e-01 2.39929086719665e-02 
2.38715277777778e+00 1.27091806124891e-01 2.40010133258008e-02 
2.40451388888889e+00 1.26424777638543e-01 2.40067762198720e-02 
2.42187500000000e+00 1.25760437115383e-01 2.40102272378030e-02 
2.43923611111111e+00 1.25099264266918e-01 2.40114418599444e-02 
2.45659722222222e+00 1.24441321528644e-01 2.40104718587027e-02 
2.47395833333333e+00 1.23786669283854e-01 2.40073564774303e-02 
2.49131944444445e+00 1.23135366007905e-01 2.40021346477924e-02 
2.50868055555556e+00 1.22487468183819e-01 2.39949022770110e-02 
2.52604166666667e+00 1.21841135566042e-01 2.39856730301861e-02 
2.54340277777778e+00 1.21196424075505e-01 2.39743897068570e-02 
2.56076388888889e+00 1.20553388214599e-01 2.39610918876733e-02 
2.57812500000000e+00 1.19912081036150e-01 2.39458197707818e-02 
2.59548611111111e+00 1.19272554116282e-01 2.39286217185282e-02 
2.61284722222222e+00 1.18634908212374e-01 2.39095456630054e-02 
2.63020833333333e+00 1.17999353014266e-01 2.38886372093709e-02 
2.64756944444445e+00 1.17365934698145e-01 2.38659441650257e-02 
2.66493055555556e+00 1.16734698070816e-01 2.38415026771513e-02 
2.68229166666667e+00 1.16105686652765e-01 2.38153473477337e-02 
2.69965277777778e+00 1.15478942696996e-01 2.37875251229222e-02 
2.71701388888889e+00 1.14854507062239e-01 2.37581099719423e-02 
2.73437500000000e+00 1.14232417964291e-01 2.37271786231171e-02 
2.75173611111111e+00 1.13612711004277e-01 2.36947792776227e-02 
2.76909722222222e+00 1.12995420654352e-01 2.36609414164471e-02 
2.78645833333333e+00 1.12380580381777e-01 2.36256877134662e-02 
2.80381944444445e+00 1.11768222922920e-01 2.35890415194261e-02 
2.82118055555556e+00 1.11157787414871e-01 2.35510255573690e-02 
2.83854166666667e+00 1.10549078931015e-01 2.35115922586433e-02 
2.85590277777778e+00 1.09942135481626e-01 2.34706873658679e-02 
2.87326388888889e+00 1.09336993695709e-01 2.34283087192297e-02 
2.89062500000000e+00 1.08733689246288e-01 2.33844845790660e-02 
2.90798611111111e+00 1.08132257012903e-01 2.33392448329871e-02 
2.92534722222222e+00 1.07532757563736e-01 2.32926267157933e-02 
2.94270833333333e+00 1.06935224507367e-01 2.32446655700799e-02 
2.96006944444445e+00 1.06339689489222e-01 2.31953880462715e-02 
2.97743055555556e+00 1.05746183348753e-01 2.31448190698822e-02 
2.99479166666667e+00 1.05154736154715e-01 2.30929919688982e-02 
3.01215277777778e+00 1.04565364057995e-01 2.30399570329057e-02 
3.02951388888889e+00 1.03978043709661e-01 2.29857915037277e-02 
3.04687500000000e+00 1.03392795560582e-01 2.29306059692493e-02 
3.06423611111111e+00 1.02809640506720e-01 2.28744953178444e-02 
3.08159722222222e+00 1.02228598471426e-01 2.28174960957020e-02 
3.09895833333333e+00 1.01649688965960e-01 2.27596258622679e-02 
3.11631944444445e+00 1.01072921417396e-01 2.27009083898816e-02 
3.13368055555556e+00 1.00498302031535e-01 2.26413682909601e-02 
3.15104166666667e+00 9.99258483616219e-02 2.25810274650082e-02 
3.16840277777778e+00 9.93555773433375e-02 2.25199066912419e-02 
3.18576388888889e+00 9.87875053109233e-02 2.24580301895612e-02 
3.20312500000000e+00 9.82216477848842e-02 2.23954346513167e-02 
3.22048611111111e+00 9.76586114457791e-02 2.23321471673109e-02 
3.23784722222222e+00 9.70986851531008e-02 2.22681912243528e-02 
3.25520833333333e+00 9.65418809855424e-02 2.22035180787430e-02 
3.27256944444445e+00 9.59882094461614e-02 2.21381024626716e-02 
3.28993055555556e+00 9.54376804062654e-02 2.20719607858516e-02 
3.30729166666667e+00 9.48903032460532e-02 2.20051329300439e-02 
3.32465277777778e+00 9.43448031212600e-02 2.19377255971901e-02 
3.34201388888889e+00 9.38010841273761e-02 2.18696777779657e-02 
3.35937500000000e+00 9.32591617666927e-02 2.18010005075224e-02 
3.37673611111111e+00 9.27190510724683e-02 2.17317117094529e-02 
3.39409722222222e+00 9.21807666409337e-02 2.16618261564108e-02 
3.41145833333333e+00 9.16443183625284e-02 2.15913605129503e-02 
3.42881944444445e+00 9.11096970477951e-02 2.15203628178483e-02 
3.44618055555556e+00 9.05769121414349e-02 2.14489054254852e-02 
3.46354166666667e+00 9.00459733425109e-02 2.13770444396631e-02 
3.48090277777778e+00 8.95168899063228e-02 2.13048040161710e-02 
3.49826388888889e+00 8.89896708459135e-02 2.12321929452864e-02 
3.51562500000000e+00 8.84643171998566e-02 2.11592173431780e-02 
3.53298611111111e+00 8.79408261133456e-02 2.10858826968196e-02 
3.55034722222222e+00 8.74192062528555e-02 2.10121976099621e-02 
3.56770833333333e+00 8.68994659751883e-02 2.09381739423069e-02 
3.58506944444445e+00 8.63816133363360e-02 2.08638261690576e-02 
3.60243055555556e+00 8.58656559260336e-02 2.07891789941851e-02 
3.61979166666667e+00 8.53515754339232e-02 2.07142604330744e-02 
3.63715277777778e+00 8.48393651959376e-02 2.06390868946981e-02 
3.65451388888889e+00 8.43290334684414e-02 2.05636909245107e-02 
3.67187500000000e+00 8.38205851088216e-02 2.04881224724200e-02 
3.68923611111111e+00 8.33140238183155e-02 2.04124067838417e-02 
3.70659722222222e+00 8.28093531949676e-02 2.03365487423399e-02 
3.72395833333333e+00 8.23062445424973e-02 2.02605793446396e-02 
3.74131944444445e+00 8.18046584251652e-02 2.01844731323409e-02 
3.75868055555556e+00 8.13046013217740e-02 2.01082072917605e-02 
3.77604166666667e+00 8.08060802543540e-02 2.00317733474348e-02 
3.79340277777778e+00 8.03091021471334e-02 1.99551841212519e-02 
3.81076388888889e+00 7.98136764942135e-02 1.98785039893792e-02 
3.82812500000000e+00 7.93198296008428e-02 1.98018790633623e-02 
3.84548611111111e+00 7.88275579673157e-02 1.97255085046961e-02 
3.86284722222222e+00 7.83368545352395e-02 1.96495411540174e-02 
3.88020833333333e+00 7.78477105142812e-02 1.95740207620031e-02 
3.89756944444445e+00 7.73601171696273e-02 1.94989444897998e-02 
3.91493055555556e+00 7.68740640198324e-02 1.94243155539822e-02 
3.93229166666667e+00 7.63895389718704e-02 1.93501524920240e-02 
3.94965277777778e+00 7.59065323926330e-02 1.92765051185775e-02 
3.96701388888889e+00 7.54250327966796e-02 1.92034377630088e-02 
3.98437500000000e+00 7.49450272335489e-02 1.91309742979182e-02 
4.00173611111111e+00 7.44665029612263e-02 1.90590114068570e-02 
4.01909722222222e+00 7.39896217205360e-02 1.89872893095830e-02 
4.03645833333333e+00 7.35144953582156e-02 1.89156759850316e-02 
4.05381944444445e+00 7.30411228573005e-02 1.88442947067041e-02 
4.07118055555556e+00 7.25694960247765e-02 1.87732825619028e-02 
4.08854166666667e+00 7.20996049194734e-02 1.87026715716021e-02 
4.10590277777778e+00 7.16314397149673e-02 1.86324845139955e-02 
4.12326388888889e+00 7.11644268084946e-02 1.85628002367473e-02 
4.14062500000000e+00 7.06984518209361e-02 1.84935395477558e-02 
4.15798611111111e+00 7.02335108873592e-02 1.84245691704026e-02 
4.17534722222222e+00 6.97696034904201e-02 1.83558062104985e-02 
4.19270833333333e+00 6.93067278823924e-02 1.82872090939729e-02 
4.21006944444445e+00 6.88449305239753e-02 1.82187261641325e-02 
4.22743055555556e+00 6.83848058555719e-02 1.81503216795634e-02 
4.24479166666667e+00 6.79263495974929e-02 1.80820855074698e-02 
4.26215277777778e+00 6.74695570564032e-02 1.80140368321539e-02 
4.27951388888889e+00 6.70144239334175e-02 1.79461735740201e-02 
4.29687500000000e+00 6.65609459646289e-02 1.78784851431225e-02 
4.31423611111111e+00 6.61091257365306e-02 1.78109349818863e-02 
4.33159722222222e+00 6.56589742015924e-02 1.77435167459681e-02 
4.34895833333333e+00 6.52104877506935e-02 1.76763229858725e-02 
4.36631944444445e+00 6.47636591038935e-02 1.76094604490762e-02 
4.38368055555556e+00 6.43184791683747e-02 1.75429623538686e-02 
4.40104166666667e+00 6.38749389544621e-02 1.74767580329701e-02 
4.41840277777778e+00 6.34330083133651e-02 1.74106713988519e-02 
4.43576388888889e+00 6.29926680809002e-02 1.73445979073703e-02 
4.45312500000000e+00 6.25539179160203e-02 1.72785811097178e-02 
4.47048611111111e+00 6.21167559872473e-02 1.72126546434761e-02 
4.48784722222222e+00 6.16811807787526e-02 1.71468128744467e-02 
4.50520833333333e+00 6.12471907462136e-02 1.70810731309715e-02 
4.52256944444445e+00 6.08147116446238e-02 1.70154879455602e-02 
4.53993055555556e+00 6.03837222623770e-02 1.69501468129290e-02 
4.55729166666667e+00 5.99542161809073e-02 1.68851656575054e-02 
4.57465277777778e+00 5.95261840549355e-02 1.68206030193311e-02 
4.59201388888889e+00 5.90996163081114e-02 1.67564596574473e-02 
4.60937500000000e+00 5.86745036146655e-02 1.66927026847529e-02 
4.62673611111111e+00 5.82508400518033e-02 1.66292593557184e-02 
4.64409722222222e+00 5.78286213881308e-02 1.65659654890191e-02 
4.66145833333333e+00 5.74078487183959e-02 1.65025991637175e-02 
4.67881944444445e+00 5.69885277560671e-02 1.64390629140189e-02 
4.69618055555556e+00 5.65706640529434e-02 1.63753418695459e-02 
4.71354166666667e+00 5.61542563462325e-02 1.63113401149366e-02 
4.73090277777778e+00 5.57392953599404e-02 1.62469184436619e-02 
4.74826388888889e+00 5.53257952643783e-02 1.61820034596445e-02 
4.76562500000000e+00 5.49137705548106e-02 1.61165827584485e-02 
4.78298611111111e+00 5.45032358610470e-02 1.60506616084203e-02 
4.80034722222222e+00 5.40942054169556e-02 1.59842473922309e-02 
4.81770833333333e+00 5.36867106478913e-02 1.59173435121443e-02 
4.83506944444445e+00 5.32807810766305e-02 1.58499777905182e-02 
4.85243055555556e+00 5.28764287873163e-02 1.57821967292206e-02 
4.86979166666667e+00 5.24736652333472e-02 1.57140353286870e-02 
4.88715277777778e+00 5.20725012401469e-02 1.56455111473790e-02 
4.90451388888889e+00 5.16729473826436e-02 1.55766179374109e-02 
4.92187500000000e+00 5.12750398835367e-02 1.55073433138135e-02 
4.93923611111111e+00 5.08787975188914e-02 1.54377147388847e-02 
4.95659722222222e+00 5.04842298321094e-02 1.53677697798877e-02 
4.97395833333333e+00 5.00913457534822e-02 1.52975224569780e-02 
4.99131944444445e+00 4.97001541052425e-02 1.52269808729992e-02 
5.00868055555556e+00 4.93106634044679e-02 1.51562336514957e-02 
5.02604166666667e+00 4.89224393042731e-02 1.50854544074715e-02 
5.04340277777778e+00 4.85354873875667e-02 1.50146165249733e-02 
5.06076388888889e+00 4.81498153392309e-02 1.49436625623237e-02 
5.07812500000000e+00 4.77654317507334e-02 1.48725794684215e-02 
5.09548611111111e+00 4.73823450252248e-02 1.48013733088615e-02 
5.11284722222222e+00 4.70006367035017e-02 1.47300422694974e-02 
5.13020833333333e+00 4.66205450482057e-02 1.46585972843104e-02 
5.14756944444445e+00 4.62420741464822e-02 1.45871138316119e-02 
5.16493055555556e+00 4.58652264084095e-02 1.45156371675007e-02 
5.18229166666667e+00 4.54900035530593e-02 1.44441831671746e-02 
5.19965277777778e+00 4.51164071453809e-02 1.43727675962800e-02 
5.21701388888889e+00 4.47443891388801e-02 1.43014423628032e-02 
5.23437500000000e+00 4.43738963501889e-02 1.42302638426918e-02 
5.25173611111111e+00 4.40049277197196e-02 1.41592461071916e-02 
5.26909722222222e+00 4.36374823205108e-02 1.40883851003777e-02 
5.28645833333333e+00 4.32715592888659e-02 1.40176797709401e-02 
5.30381944444445e+00 4.29071577417137e-02 1.39471243188351e-02 
5.32118055555556e+00 4.25441331962778e-02 1.38767256900567e-02 
5.33854166666667e+00 4.21824308473798e-02 1.38064745954299e-02 
5.35590277777778e+00 4.18220521373431e-02 1.37363578380793e-02 
5.37326388888889e+00 4.14629988895413e-02 1.36663666937555e-02 
5.39062500000000e+00 4.11052729738689e-02 1.35965022922209e-02 
