Energy(eV)           EEDF(eV^-(3/2))      Anisotropy(eV^-(3/2))
1.04166666666667e-02 1.71957689629852e-01 -1.28126125672953e-03 
3.12500000000000e-02 1.71975665981889e-01 -4.34211859583249e-04 
5.20833333333333e-02 1.71990437504348e-01 1.42349931601954e-04 
7.29166666666667e-02 1.72002091228334e-01 5.13147490296134e-04 
9.37500000000000e-02 1.72010238730834e-01 8.22900895173876e-04 
1.14583333333333e-01 1.72014689208090e-01 1.10579491436946e-03 
1.35416666666667e-01 1.72015279738925e-01 1.70599659066188e-03 
1.56250000000000e-01 1.72004096446723e-01 2.54187466474561e-03 
1.77083333333333e-01 1.71981164031526e-01 3.03011205154235e-03 
1.97916666666667e-01 1.71952689242014e-01 3.31036688536746e-03 
2.18750000000000e-01 1.71916823668450e-01 3.61311285695606e-03 
2.39583333333333e-01 1.71874462363854e-01 3.85162132693930e-03 
2.60416666666667e-01 1.71826216882869e-01 4.62822902283410e-03 
2.81250000000000e-01 1.71753434345164e-01 5.90953241716680e-03 
3.02083333333333e-01 1.71655617602987e-01 6.87974401815943e-03 
3.22916666666667e-01 1.71541246764815e-01 7.47564063862468e-03 
3.43750000000000e-01 1.71405711650838e-01 7.68190929195531e-03 
3.64583333333333e-01 1.71275365753459e-01 8.05869216913490e-03 
3.85416666666667e-01 1.71125699036470e-01 9.20281576279353e-03 
4.06250000000000e-01 1.70941650762282e-01 1.04597125276226e-02 
4.27083333333333e-01 1.70732484744600e-01 1.12647781262990e-02 
4.47916666666667e-01 1.70506816349945e-01 1.14620978647594e-02 
4.68750000000000e-01 1.70251386384923e-01 1.11790440943967e-02 
4.89583333333333e-01 1.70029502528809e-01 1.17742992941311e-02 
5.10416666666667e-01 1.69767851669367e-01 1.34342495166572e-02 
5.31250000000000e-01 1.69466332313983e-01 1.46567671642789e-02 
5.52083333333333e-01 1.69146003908219e-01 1.51182283492122e-02 
5.72916666666667e-01 1.68794703069602e-01 1.48301556032447e-02 
5.93750000000000e-01 1.68450991832196e-01 1.44087860016253e-02 
6.14583333333333e-01 1.68140718534084e-01 1.47510316993233e-02 
6.35416666666667e-01 1.67820700774195e-01 1.54981570771072e-02 
6.56250000000000e-01 1.67495060124264e-01 1.60591419448374e-02 
6.77083333333333e-01 1.67169278966819e-01 1.58380235924737e-02 
6.97916666666667e-01 1.66792135728662e-01 1.49916856630198e-02 
7.18750000000000e-01 1.66511495093894e-01 1.46989878645668e-02 
7.39583333333333e-01 1.66228239742382e-01 1.53685020091638e-02 
7.60416666666667e-01 1.65932027601835e-01 1.59743627397595e-02 
7.81250000000000e-01 1.65627782693141e-01 1.63549787128249e-02 
8.02083333333333e-01 1.65306105871371e-01 1.63090642531892e-02 
8.22916666666667e-01 1.64962084682166e-01 1.60914603630783e-02 
8.43750000000000e-01 1.64628297382053e-01 1.62759954867129e-02 
8.64583333333333e-01 1.64261891941724e-01 1.67483960238393e-02 
8.85416666666667e-01 1.63861146160593e-01 1.71680034245855e-02 
9.06250000000000e-01 1.63427841561337e-01 1.72116677010468e-02 
9.27083333333333e-01 1.62952493536642e-01 1.69747949204837e-02 
9.47916666666667e-01 1.62517029125218e-01 1.70423570193988e-02 
9.68750000000000e-01 1.62065439546334e-01 1.74383425644919e-02 
9.89583333333333e-01 1.61596891100169e-01 1.78030153343450e-02 
1.01041666666667e+00 1.61113401283713e-01 1.80862612229957e-02 
1.03125000000000e+00 1.60615228642248e-01 1.82280116364797e-02 
1.05208333333333e+00 1.60099068294652e-01 1.82964033111732e-02 
1.07291666666667e+00 1.59589849424946e-01 1.84925115706672e-02 
1.09375000000000e+00 1.59067142596026e-01 1.87705114481347e-02 
1.11458333333333e+00 1.58531658890441e-01 1.90245418944117e-02 
1.13541666666667e+00 1.57983774581318e-01 1.91828919152387e-02 
1.15625000000000e+00 1.57414751317939e-01 1.92590084177775e-02 
1.17708333333333e+00 1.56851693064938e-01 1.94263998250420e-02 
1.19791666666667e+00 1.56275760274903e-01 1.96678837151128e-02 
1.21875000000000e+00 1.55689370826063e-01 1.98965575301668e-02 
1.23958333333333e+00 1.55095758976955e-01 2.00926591632832e-02 
1.26041666666667e+00 1.54492043185745e-01 2.02590415584288e-02 
1.28125000000000e+00 1.53887476217751e-01 2.04512965533398e-02 
1.30208333333333e+00 1.53275921846290e-01 2.06630478210843e-02 
1.32291666666667e+00 1.52659118296461e-01 2.08689646933970e-02 
1.34375000000000e+00 1.52038156221283e-01 2.10570927438157e-02 
1.36458333333333e+00 1.51411033371905e-01 2.12278860431478e-02 
1.38541666666667e+00 1.50783885132214e-01 2.14152939545839e-02 
1.40625000000000e+00 1.50152739542995e-01 2.16168323186411e-02 
1.42708333333333e+00 1.49517747937123e-01 2.18141415433970e-02 
1.44791666666667e+00 1.48879109452591e-01 2.20010431227899e-02 
1.46875000000000e+00 1.48236330092218e-01 2.21769977554046e-02 
1.48958333333333e+00 1.47591612203275e-01 2.23522499640100e-02 
1.51041666666667e+00 1.46943875978658e-01 2.25271726709205e-02 
1.53125000000000e+00 1.46293277607746e-01 2.26974004520657e-02 
1.55208333333333e+00 1.45639868056517e-01 2.28616907782281e-02 
1.57291666666667e+00 1.44983848999460e-01 2.30210708703895e-02 
1.59375000000000e+00 1.44325784431278e-01 2.31785060253936e-02 
1.61458333333333e+00 1.43665452410111e-01 2.33334477232511e-02 
1.63541666666667e+00 1.43003000773172e-01 2.34835382307752e-02 
1.65625000000000e+00 1.42338379741104e-01 2.36285473393826e-02 
1.67708333333333e+00 1.41672166894981e-01 2.37708105302605e-02 
1.69791666666667e+00 1.41004291994666e-01 2.39107872425934e-02 
1.71875000000000e+00 1.40335088662404e-01 2.40473357341430e-02 
1.73958333333333e+00 1.39665095854382e-01 2.41802046280225e-02 
1.76041666666667e+00 1.38994452221798e-01 2.43094296339750e-02 
1.78125000000000e+00 1.38323291939409e-01 2.44351034847251e-02 
1.80208333333333e+00 1.37651745468396e-01 2.45572290973824e-02 
1.82291666666667e+00 1.36979945980962e-01 2.46756353709645e-02 
1.84375000000000e+00 1.36308031494239e-01 2.47901295690597e-02 
1.86458333333333e+00 1.35636140623272e-01 2.49006923829613e-02 
1.88541666666667e+00 1.34964408695910e-01 2.50074288947005e-02 
1.90625000000000e+00 1.34292966081312e-01 2.51104934638327e-02 
1.92708333333333e+00 1.33621381690597e-01 2.52099545023326e-02 
1.94791666666667e+00 1.32949633373566e-01 2.53058799300314e-02 
1.96875000000000e+00 1.32277835315779e-01 2.53982257720502e-02 
1.98958333333333e+00 1.31606077943973e-01 2.54868588142645e-02 
2.01041666666667e+00 1.30934477844450e-01 2.55717786704606e-02 
2.03125000000000e+00 1.30263152784069e-01 2.56530642156599e-02 
2.05208333333333e+00 1.29592215288770e-01 2.57307243211576e-02 
2.07291666666667e+00 1.28921777322586e-01 2.58047879691841e-02 
2.09375000000000e+00 1.28251947733159e-01 2.58753363399754e-02 
2.11458333333333e+00 1.27582665674050e-01 2.59423880561646e-02 
2.13541666666667e+00 1.26913368251254e-01 2.60058391367108e-02 
2.15625000000000e+00 1.26244159056663e-01 2.60656866099032e-02 
2.17708333333333e+00 1.25575139548199e-01 2.61219851173243e-02 
2.19791666666667e+00 1.24906409041979e-01 2.61747466502162e-02 
2.21875000000000e+00 1.24237944133102e-01 2.62238655310232e-02 
2.23958333333333e+00 1.23569663372021e-01 2.62691967262880e-02 
2.26041666666667e+00 1.22901672217400e-01 2.63106976764508e-02 
2.28125000000000e+00 1.22234073912041e-01 2.63484032258058e-02 
2.30208333333333e+00 1.21566969704622e-01 2.63823830147265e-02 
2.32291666666667e+00 1.20900540345071e-01 2.64127130580393e-02 
2.34375000000000e+00 1.20234937210035e-01 2.64394370513159e-02 
2.36458333333333e+00 1.19570255491636e-01 2.64625910841567e-02 
2.38541666666667e+00 1.18906588534089e-01 2.64822452185066e-02 
2.40625000000000e+00 1.18244026672875e-01 2.64984411349197e-02 
2.42708333333333e+00 1.17584210989048e-01 2.65112595372048e-02 
2.44791666666667e+00 1.16927616962688e-01 2.65207820319609e-02 
2.46875000000000e+00 1.16274329488661e-01 2.65270679698849e-02 
2.48958333333333e+00 1.15624430670402e-01 2.65301844120886e-02 
2.51041666666667e+00 1.14977999484672e-01 2.65302669518385e-02 
2.53125000000000e+00 1.14332835444862e-01 2.65273467769647e-02 
2.55208333333333e+00 1.13689013943859e-01 2.65213728306750e-02 
2.57291666666667e+00 1.13046609505208e-01 2.65123908800483e-02 
2.59375000000000e+00 1.12405694394345e-01 2.65004830047850e-02 
2.61458333333333e+00 1.11766423863591e-01 2.64857271940402e-02 
2.63541666666667e+00 1.11129207686203e-01 2.64681981383123e-02 
2.65625000000000e+00 1.10494110320350e-01 2.64479642510676e-02 
2.67708333333333e+00 1.09861194670363e-01 2.64250767190345e-02 
2.69791666666667e+00 1.09230521672896e-01 2.63996063833431e-02 
2.71875000000000e+00 1.08602150862489e-01 2.63716513494950e-02 
2.73958333333333e+00 1.07976139060990e-01 2.63413235601862e-02 
2.76041666666667e+00 1.07352538379097e-01 2.63087107587073e-02 
2.78125000000000e+00 1.06731398900587e-01 2.62738629703292e-02 
2.80208333333333e+00 1.06112769469304e-01 2.62368178498003e-02 
2.82291666666667e+00 1.05496152394515e-01 2.61976298778868e-02 
2.84375000000000e+00 1.04881234070316e-01 2.61563072770611e-02 
2.86458333333333e+00 1.04268064920294e-01 2.61128145947645e-02 
2.88541666666667e+00 1.03656694525513e-01 2.60671374919955e-02 
2.90625000000000e+00 1.03047172069470e-01 2.60193256039155e-02 
2.92708333333333e+00 1.02439589593512e-01 2.59694641234427e-02 
2.94791666666667e+00 1.01834002889819e-01 2.59176027968263e-02 
2.96875000000000e+00 1.01230455911699e-01 2.58637648817098e-02 
2.98958333333333e+00 1.00628991670344e-01 2.58079952094094e-02 
3.01041666666667e+00 1.00029651623832e-01 2.57503758501929e-02 
3.03125000000000e+00 9.94323455778085e-02 2.56909974442406e-02 
3.05208333333333e+00 9.88371073000765e-02 2.56299561068908e-02 
3.07291666666667e+00 9.82439706430381e-02 2.55673952183480e-02 
3.09375000000000e+00 9.76529663532539e-02 2.55034065130000e-02 
3.11458333333333e+00 9.70641155033600e-02 2.54380365842878e-02 
3.13541666666667e+00 9.64774118059363e-02 2.53713348905814e-02 
3.15625000000000e+00 9.58928827825011e-02 2.53033333630242e-02 
3.17708333333333e+00 9.53105552295754e-02 2.52340686987116e-02 
3.19791666666667e+00 9.47304547556608e-02 2.51636000019373e-02 
3.21875000000000e+00 9.41530273444521e-02 2.50919848387029e-02 
3.23958333333333e+00 9.35789248687687e-02 2.50192667425384e-02 
3.26041666666667e+00 9.30081652606402e-02 2.49454528162459e-02 
3.28125000000000e+00 9.24407651198745e-02 2.48704824488147e-02 
3.30208333333333e+00 9.18767417435597e-02 2.47943565958016e-02 
3.32291666666667e+00 9.13150840360048e-02 2.47171895516272e-02 
3.34375000000000e+00 9.07551303488193e-02 2.46390063103508e-02 
3.36458333333333e+00 9.01969049841019e-02 2.45597973578286e-02 
3.38541666666667e+00 8.96404315352020e-02 2.44795899880608e-02 
3.40625000000000e+00 8.90857330648430e-02 2.43984108950621e-02 
3.42708333333333e+00 8.85328998443466e-02 2.43163027764807e-02 
3.44791666666667e+00 8.79819673430054e-02 2.42333487073350e-02 
3.46875000000000e+00 8.74329529245288e-02 2.41496423884756e-02 
3.48958333333333e+00 8.68858726728068e-02 2.40652439114904e-02 
3.51041666666667e+00 8.63407420070995e-02 2.39801845630941e-02 
3.53125000000000e+00 8.57975356700261e-02 2.38944914028235e-02 
3.55208333333333e+00 8.52562682504022e-02 2.38081692530270e-02 
3.57291666666667e+00 8.47169543083798e-02 2.37212322685965e-02 
3.59375000000000e+00 8.41796077801787e-02 2.36337137772167e-02 
3.61458333333333e+00 8.36442254527244e-02 2.35456580460214e-02 
3.63541666666667e+00 8.31107549446906e-02 2.34571468453596e-02 
3.65625000000000e+00 8.25792086313636e-02 2.33682532448572e-02 
3.67708333333333e+00 8.20495954554727e-02 2.32789823803174e-02 
3.69791666666667e+00 8.15219252258510e-02 2.31893213716725e-02 
3.71875000000000e+00 8.09960549427744e-02 2.30992967437773e-02 
3.73958333333333e+00 8.04717670242751e-02 2.30089187208482e-02 
3.76041666666667e+00 7.99490737942155e-02 2.29181562648825e-02 
3.78125000000000e+00 7.94279879627960e-02 2.28270103626416e-02 
3.80208333333333e+00 7.89085218556399e-02 2.27355353884042e-02 
3.82291666666667e+00 7.83906405943634e-02 2.26439186561794e-02 
3.84375000000000e+00 7.78743172416275e-02 2.25524204820965e-02 
3.86458333333333e+00 7.73595493376506e-02 2.24611979327793e-02 
3.88541666666667e+00 7.68463339783137e-02 2.23702996940125e-02 
3.90625000000000e+00 7.63346676478452e-02 2.22797382205886e-02 
3.92708333333333e+00 7.58246414335629e-02 2.21895428278031e-02 
3.94791666666667e+00 7.53162728348829e-02 2.20998071884369e-02 
3.96875000000000e+00 7.48095532602129e-02 2.20106022433950e-02 
3.98958333333333e+00 7.43044732052266e-02 2.19219423774867e-02 
4.01041666666667e+00 7.38010233526877e-02 2.18336820205142e-02 
4.03125000000000e+00 7.32995289554664e-02 2.17456113324005e-02 
4.05208333333333e+00 7.27999886155162e-02 2.16578036807948e-02 
4.07291666666667e+00 7.23023950167075e-02 2.15703357002782e-02 
4.09375000000000e+00 7.18067410751877e-02 2.14832017583357e-02 
4.11458333333333e+00 7.13128628362746e-02 2.13964352023224e-02 
4.13541666666667e+00 7.08201294529547e-02 2.13100411507464e-02 
4.15625000000000e+00 7.03285414530247e-02 2.12238482331091e-02 
4.17708333333333e+00 6.98381025318871e-02 2.11377732338951e-02 
4.19791666666667e+00 6.93488103696198e-02 2.10517689453261e-02 
4.21875000000000e+00 6.88609569319538e-02 2.09657926716835e-02 
4.23958333333333e+00 6.83749898136999e-02 2.08798679817197e-02 
4.26041666666667e+00 6.78909065251693e-02 2.07940570641531e-02 
4.28125000000000e+00 6.74087052774316e-02 2.07083687388615e-02 
4.30208333333333e+00 6.69283839518047e-02 2.06227943798911e-02 
4.32291666666667e+00 6.64499651808532e-02 2.05373440204304e-02 
4.34375000000000e+00 6.59734620203776e-02 2.04521171098009e-02 
4.36458333333333e+00 6.54988681071324e-02 2.03672144762466e-02 
4.38541666666667e+00 6.50261757366296e-02 2.02826638716243e-02 
4.40625000000000e+00 6.45553772335861e-02 2.01983740391205e-02 
4.42708333333333e+00 6.40863892086263e-02 2.01141911318546e-02 
4.44791666666667e+00 6.36191918550260e-02 2.00300602407818e-02 
4.46875000000000e+00 6.31537847304347e-02 1.99460025073135e-02 
4.48958333333333e+00 6.26901674717744e-02 1.98620236549866e-02 
4.51041666666667e+00 6.22283395572789e-02 1.97781684807896e-02 
4.53125000000000e+00 6.17682246814599e-02 1.96945773044349e-02 
4.55208333333333e+00 6.13098168107487e-02 1.96113848741171e-02 
4.57291666666667e+00 6.08531074230926e-02 1.95286423430436e-02 
4.59375000000000e+00 6.03980878551613e-02 1.94463436947350e-02 
4.61458333333333e+00 5.99447503341088e-02 1.93644266140449e-02 
4.63541666666667e+00 5.94930913440662e-02 1.92826995092949e-02 
4.65625000000000e+00 5.90431132356121e-02 1.92009217705051e-02 
4.67708333333333e+00 5.85948215847336e-02 1.91189799132048e-02 
4.69791666666667e+00 5.81482224646164e-02 1.90368360716688e-02 
4.71875000000000e+00 5.77032980355037e-02 1.89543829198429e-02 
4.73958333333333e+00 5.72600221811016e-02 1.88714751692446e-02 
4.76041666666667e+00 5.68184099257456e-02 1.87880373076856e-02 
4.78125000000000e+00 5.63784765457635e-02 1.87040712782440e-02 
4.80208333333333e+00 5.59402368800911e-02 1.86195860790317e-02 
4.82291666666667e+00 5.55037468859117e-02 1.85345847688939e-02 
4.84375000000000e+00 5.50690477122775e-02 1.84491068739719e-02 
4.86458333333333e+00 5.46361515736187e-02 1.83632088939154e-02 
4.88541666666667e+00 5.42050698855118e-02 1.82769225064434e-02 
4.90625000000000e+00 5.37758136784728e-02 1.81902493049252e-02 
4.92708333333333e+00 5.33484491279958e-02 1.81031953669526e-02 
4.94791666666667e+00 5.29229998588884e-02 1.80158069235351e-02 
4.96875000000000e+00 5.24994745992900e-02 1.79281115611361e-02 
4.98958333333333e+00 5.20778819728069e-02 1.78401198288492e-02 
5.01041666666667e+00 5.16582302179176e-02 1.77519066451422e-02 
5.03125000000000e+00 5.12400047016850e-02 1.76636427551879e-02 
5.05208333333333e+00 5.08232132022445e-02 1.75753036847149e-02 
5.07291666666667e+00 5.04078645531990e-02 1.74868725716003e-02 
5.09375000000000e+00 4.99939673592527e-02 1.73983585915597e-02 
5.11458333333333e+00 4.95816002208683e-02 1.73097796848152e-02 
5.13541666666667e+00 4.91710491474346e-02 1.72211672055920e-02 
5.15625000000000e+00 4.87623164591862e-02 1.71326058785010e-02 
5.17708333333333e+00 4.83554033581545e-02 1.70441227890620e-02 
5.19791666666667e+00 4.79503108554123e-02 1.69557158465891e-02 
5.21875000000000e+00 4.75469912453172e-02 1.68674239700809e-02 
5.23958333333333e+00 4.71453712980889e-02 1.67793365362947e-02 
5.26041666666667e+00 4.67454493753612e-02 1.66914919130856e-02 
5.28125000000000e+00 4.63472238668502e-02 1.66038890985436e-02 
5.30208333333333e+00 4.59506931502633e-02 1.65165184625823e-02 
5.32291666666667e+00 4.55557116999434e-02 1.64293813898592e-02 
5.34375000000000e+00 4.51621843291629e-02 1.63424674771373e-02 
5.36458333333333e+00 4.47701125864523e-02 1.62557636140055e-02 
5.38541666666667e+00 4.43794981033879e-02 1.61692707368588e-02 
5.40625000000000e+00 4.39903423337840e-02 1.60829462172855e-02 
5.42708333333333e+00 4.36026512896896e-02 1.59967196038677e-02 
5.44791666666667e+00 4.32164309443295e-02 1.59105871585340e-02 
5.46875000000000e+00 4.28316853368118e-02 1.58245686342116e-02 
5.48958333333333e+00 4.24484182892925e-02 1.57386637953925e-02 
5.51041666666667e+00 4.20666335803800e-02 1.56528510949265e-02 
5.53125000000000e+00 4.16866803485695e-02 1.55670109014623e-02 
5.55208333333333e+00 4.13085626303252e-02 1.54811016735935e-02 
5.57291666666667e+00 4.09322854394555e-02 1.53951105964356e-02 
5.59375000000000e+00 4.05578534494266e-02 1.53090505900591e-02 
5.61458333333333e+00 4.01852487085998e-02 1.52229627747097e-02 
5.63541666666667e+00 3.98143854303268e-02 1.51369775454850e-02 
5.65625000000000e+00 3.94452634692551e-02 1.50512308691487e-02 
5.67708333333333e+00 3.90778796256524e-02 1.49657770847428e-02 
5.69791666666667e+00 3.87122307576037e-02 1.48806180608331e-02 
5.71875000000000e+00 3.83483570528498e-02 1.47956580364397e-02 
5.73958333333333e+00 3.79863242811537e-02 1.47106633961201e-02 
5.76041666666667e+00 3.76261394050876e-02 1.46254688716287e-02 
5.78125000000000e+00 3.72678110616495e-02 1.45400459383962e-02 
5.80208333333333e+00 3.69113475408484e-02 1.44543601583299e-02 
5.82291666666667e+00 3.65566981741076e-02 1.43684158357612e-02 
5.84375000000000e+00 3.62038323430511e-02 1.42823331783146e-02 
5.86458333333333e+00 3.58527561985660e-02 1.41961925400837e-02 
5.88541666666667e+00 3.55034751708607e-02 1.41099962592810e-02 
5.90625000000000e+00 3.51559946460293e-02 1.40237857163588e-02 
5.92708333333333e+00 3.48097420475140e-02 1.39377418197138e-02 
5.94791666666667e+00 3.44645812373133e-02 1.38518997361552e-02 
5.96875000000000e+00 3.41205199679358e-02 1.37662668299278e-02 
5.98958333333333e+00 3.37775655318121e-02 1.36808543215301e-02 
6.01041666666667e+00 3.34357249812568e-02 1.35954938334412e-02 
6.03125000000000e+00 3.30950225189021e-02 1.35098551201420e-02 
6.05208333333333e+00 3.27554810501429e-02 1.34238046438948e-02 
6.07291666666667e+00 3.24171230933693e-02 1.33373840856708e-02 
6.09375000000000e+00 3.20799703482142e-02 1.32506398017428e-02 
6.11458333333333e+00 3.17441348823869e-02 1.31636808299510e-02 
6.13541666666667e+00 3.14099954451344e-02 1.30766018337969e-02 
6.15625000000000e+00 3.10775599990224e-02 1.29894707602000e-02 
6.17708333333333e+00 3.07468371261961e-02 1.29022801419300e-02 
6.19791666666667e+00 3.04178350681368e-02 1.28150039806790e-02 
6.21875000000000e+00 3.00905659508185e-02 1.27275312620952e-02 
6.23958333333333e+00 2.97650469504869e-02 1.26397789498011e-02 
6.26041666666667e+00 2.94412921816856e-02 1.25517832165987e-02 
6.28125000000000e+00 2.91193137718577e-02 1.24635951053538e-02 
6.30208333333333e+00 2.87991233336824e-02 1.23752532151742e-02 
6.32291666666667e+00 2.84807305094002e-02 1.22867568107235e-02 
6.34375000000000e+00 2.81641467117432e-02 1.21980207572054e-02 
6.36458333333333e+00 2.78493866553300e-02 1.21089897494996e-02 
6.38541666666667e+00 2.75364649854076e-02 1.20196760764775e-02 
6.40625000000000e+00 2.72253957824317e-02 1.19299312066413e-02 
6.42708333333333e+00 2.69162110359066e-02 1.18394529769366e-02 
6.44791666666667e+00 2.66089430825195e-02 1.17481275935914e-02 
6.46875000000000e+00 2.63036205012655e-02 1.16559993102338e-02 
