Energy(eV)           EEDF(eV^-(3/2))      Anisotropy(eV^-(3/2))
1.04166666666667e-02 1.70821414028058e-01 -1.17731642492093e-03 
3.12500000000000e-02 1.70838281020820e-01 -3.86088876018113e-04 
5.20833333333333e-02 1.70852047894925e-01 1.70376639224865e-04 
7.29166666666667e-02 1.70862777752364e-01 5.31685521656657e-04 
9.37500000000000e-02 1.70870094913058e-01 8.34952732001748e-04 
1.14583333333333e-01 1.70873814240604e-01 1.11269516081408e-03 
1.35416666666667e-01 1.70873783058147e-01 1.69071654240130e-03 
1.56250000000000e-01 1.70862621428508e-01 2.49210236685968e-03 
1.77083333333333e-01 1.70840336094988e-01 2.96510806635744e-03 
1.97916666666667e-01 1.70812678099037e-01 3.24183459642294e-03 
2.18750000000000e-01 1.70777914353786e-01 3.54051745404847e-03 
2.39583333333333e-01 1.70736868450220e-01 3.77931252045015e-03 
2.60416666666667e-01 1.70690078708242e-01 4.52834389152486e-03 
2.81250000000000e-01 1.70620186271133e-01 5.75621486824251e-03 
3.02083333333333e-01 1.70526704741900e-01 6.69072227809169e-03 
3.22916666666667e-01 1.70417490239010e-01 7.27192726293564e-03 
3.43750000000000e-01 1.70288256303299e-01 7.48444231347528e-03 
3.64583333333333e-01 1.70163420866402e-01 7.85927222611604e-03 
3.85416666666667e-01 1.70020222072669e-01 8.96080173189185e-03 
4.06250000000000e-01 1.69844660903678e-01 1.01696456267252e-02 
4.27083333333333e-01 1.69645326662600e-01 1.09511077834664e-02 
4.47916666666667e-01 1.69430195985198e-01 1.11582269610817e-02 
4.68750000000000e-01 1.69186932495752e-01 1.09085203105815e-02 
4.89583333333333e-01 1.68974279931166e-01 1.14930006913780e-02 
5.10416666666667e-01 1.68724188092808e-01 1.30851449592184e-02 
5.31250000000000e-01 1.68436603059324e-01 1.42632439662022e-02 
5.52083333333333e-01 1.68131054374831e-01 1.47210319380972e-02 
5.72916666666667e-01 1.67796241891991e-01 1.44687078377103e-02 
5.93750000000000e-01 1.67467861149857e-01 1.40894404680566e-02 
6.14583333333333e-01 1.67170089075117e-01 1.44348298491937e-02 
6.35416666666667e-01 1.66862893449635e-01 1.51634835852438e-02 
6.56250000000000e-01 1.66550099287315e-01 1.57161336551254e-02 
6.77083333333333e-01 1.66236804697313e-01 1.55303917678972e-02 
6.97916666666667e-01 1.65874985329313e-01 1.47458452410134e-02 
7.18750000000000e-01 1.65602900618578e-01 1.44930117565301e-02 
7.39583333333333e-01 1.65328001442847e-01 1.51494135507100e-02 
7.60416666666667e-01 1.65040588156054e-01 1.57455813262375e-02 
7.81250000000000e-01 1.64745245215206e-01 1.61285761543556e-02 
8.02083333333333e-01 1.64433107183290e-01 1.61077720544018e-02 
8.22916666666667e-01 1.64099186654608e-01 1.59228906094879e-02 
8.43750000000000e-01 1.63774057954504e-01 1.61200367310979e-02 
8.64583333333333e-01 1.63417457153029e-01 1.65893461867225e-02 
8.85416666666667e-01 1.63027745250135e-01 1.70084051244793e-02 
9.06250000000000e-01 1.62606541742232e-01 1.70713404182957e-02 
9.27083333333333e-01 1.62144793081508e-01 1.68665223122379e-02 
9.47916666666667e-01 1.61720008762574e-01 1.69516976845772e-02 
9.68750000000000e-01 1.61279504132205e-01 1.73474088945506e-02 
9.89583333333333e-01 1.60822500069488e-01 1.77131842371736e-02 
1.01041666666667e+00 1.60350866916518e-01 1.80014626677680e-02 
1.03125000000000e+00 1.59864797346742e-01 1.81552928827833e-02 
1.05208333333333e+00 1.59361035902915e-01 1.82388773393686e-02 
1.07291666666667e+00 1.58863280797801e-01 1.84434596326927e-02 
1.09375000000000e+00 1.58352260402708e-01 1.87251716643688e-02 
1.11458333333333e+00 1.57828637072430e-01 1.89837623730439e-02 
1.13541666666667e+00 1.57292761442317e-01 1.91513397490102e-02 
1.15625000000000e+00 1.56736209383781e-01 1.92403208856811e-02 
1.17708333333333e+00 1.56184773283620e-01 1.94157894095956e-02 
1.19791666666667e+00 1.55620647589028e-01 1.96611125368602e-02 
1.21875000000000e+00 1.55046153062382e-01 1.98939720475374e-02 
1.23958333333333e+00 1.54464409797402e-01 2.00956756841956e-02 
1.26041666666667e+00 1.53872637179047e-01 2.02688416188697e-02 
1.28125000000000e+00 1.53279659030547e-01 2.04663330206224e-02 
1.30208333333333e+00 1.52679670516491e-01 2.06820188337943e-02 
1.32291666666667e+00 1.52074364773009e-01 2.08919103282743e-02 
1.34375000000000e+00 1.51464811504609e-01 2.10846888758781e-02 
1.36458333333333e+00 1.50849084328955e-01 2.12607441965048e-02 
1.38541666666667e+00 1.50233043683597e-01 2.14523636816280e-02 
1.40625000000000e+00 1.49612931108330e-01 2.16571536600002e-02 
1.42708333333333e+00 1.48988898174804e-01 2.18577056368253e-02 
1.44791666666667e+00 1.48361138826534e-01 2.20481542711575e-02 
1.46875000000000e+00 1.47729177454309e-01 2.22279729581127e-02 
1.48958333333333e+00 1.47095119700927e-01 2.24069070188006e-02 
1.51041666666667e+00 1.46457944593108e-01 2.25853065774263e-02 
1.53125000000000e+00 1.45817803064346e-01 2.27590373280937e-02 
1.55208333333333e+00 1.45174746887680e-01 2.29269210369464e-02 
1.57291666666667e+00 1.44528970352988e-01 2.30899324020458e-02 
1.59375000000000e+00 1.43881016779885e-01 2.32508947085365e-02 
1.61458333333333e+00 1.43230679609368e-01 2.34092928224836e-02 
1.63541666666667e+00 1.42578103564533e-01 2.35628971536627e-02 
1.65625000000000e+00 1.41923242636107e-01 2.37114899215751e-02 
1.67708333333333e+00 1.41266651756396e-01 2.38572923021905e-02 
1.69791666666667e+00 1.40608268532109e-01 2.40007429795801e-02 
1.71875000000000e+00 1.39948405161055e-01 2.41407645271882e-02 
1.73958333333333e+00 1.39287564460045e-01 2.42771222700643e-02 
1.76041666666667e+00 1.38625881628941e-01 2.44098501548457e-02 
1.78125000000000e+00 1.37963487668177e-01 2.45390365879159e-02 
1.80208333333333e+00 1.37300510065740e-01 2.46646875514923e-02 
1.82291666666667e+00 1.36637079044527e-01 2.47866446438831e-02 
1.84375000000000e+00 1.35973329051893e-01 2.49047252377092e-02 
1.86458333333333e+00 1.35309394923070e-01 2.50189077654861e-02 
1.88541666666667e+00 1.34645408617012e-01 2.51292908360218e-02 
1.90625000000000e+00 1.33981497414408e-01 2.52360231175558e-02 
1.92708333333333e+00 1.33317272775997e-01 2.53391732630516e-02 
1.94791666666667e+00 1.32652721393336e-01 2.54388088380431e-02 
1.96875000000000e+00 1.31987955126846e-01 2.55348694623929e-02 
1.98958333333333e+00 1.31323059378693e-01 2.56271920049958e-02 
2.01041666666667e+00 1.30658149621584e-01 2.57157624566606e-02 
2.03125000000000e+00 1.29993343298306e-01 2.58006634587941e-02 
2.05208333333333e+00 1.29328752089153e-01 2.58819063029469e-02 
2.07291666666667e+00 1.28664487187166e-01 2.59595173049169e-02 
2.09375000000000e+00 1.28000656846306e-01 2.60335729258304e-02 
2.11458333333333e+00 1.27337208254980e-01 2.61040767851628e-02 
2.13541666666667e+00 1.26673612466972e-01 2.61709051555824e-02 
2.15625000000000e+00 1.26009973743439e-01 2.62340472523961e-02 
2.17708333333333e+00 1.25346394286423e-01 2.62935568539902e-02 
2.19791666666667e+00 1.24682974222516e-01 2.63494441812812e-02 
2.21875000000000e+00 1.24019674624233e-01 2.64015919819803e-02 
2.23958333333333e+00 1.23356390616323e-01 2.64498388020173e-02 
2.26041666666667e+00 1.22693229199587e-01 2.64941381525657e-02 
2.28125000000000e+00 1.22030294988159e-01 2.65345276881729e-02 
2.30208333333333e+00 1.21367690594970e-01 2.65710768534766e-02 
2.32291666666667e+00 1.20705609318108e-01 2.66038601490437e-02 
2.34375000000000e+00 1.20044211539732e-01 2.66329211305875e-02 
2.36458333333333e+00 1.19383594110570e-01 2.66582961593306e-02 
2.38541666666667e+00 1.18723852075554e-01 2.66800551896354e-02 
2.40625000000000e+00 1.18065077520414e-01 2.66982419658947e-02 
2.42708333333333e+00 1.17408871400377e-01 2.67129432199929e-02 
2.44791666666667e+00 1.16755700546394e-01 2.67242419046059e-02 
2.46875000000000e+00 1.16105651699010e-01 2.67321972209710e-02 
2.48958333333333e+00 1.15458808855495e-01 2.67368766681889e-02 
2.51041666666667e+00 1.14815252902868e-01 2.67384170997460e-02 
2.53125000000000e+00 1.14172792241106e-01 2.67368459645565e-02 
2.55208333333333e+00 1.13531504080507e-01 2.67321135789368e-02 
2.57291666666667e+00 1.12891464757670e-01 2.67242665285737e-02 
2.59375000000000e+00 1.12252748409801e-01 2.67133866116157e-02 
2.61458333333333e+00 1.11615523796634e-01 2.66995521320134e-02 
2.63541666666667e+00 1.10980248928335e-01 2.66828422850412e-02 
2.65625000000000e+00 1.10346990047746e-01 2.66633301187289e-02 
2.67708333333333e+00 1.09715811860444e-01 2.66410670846480e-02 
2.69791666666667e+00 1.09086777125186e-01 2.66161249364122e-02 
2.71875000000000e+00 1.08459947339402e-01 2.65886034256695e-02 
2.73958333333333e+00 1.07835381360509e-01 2.65586154141490e-02 
2.76041666666667e+00 1.07213133150009e-01 2.65262484234672e-02 
2.78125000000000e+00 1.06593254681295e-01 2.64915529340072e-02 
2.80208333333333e+00 1.05975796680971e-01 2.64545693795364e-02 
2.82291666666667e+00 1.05360282514981e-01 2.64153567125956e-02 
2.84375000000000e+00 1.04746413174907e-01 2.63739298304710e-02 
2.86458333333333e+00 1.04134240653788e-01 2.63302608884667e-02 
2.88541666666667e+00 1.03523815747720e-01 2.62843412040436e-02 
2.90625000000000e+00 1.02915188779445e-01 2.62362258257873e-02 
2.92708333333333e+00 1.02308458911737e-01 2.61860078235374e-02 
2.94791666666667e+00 1.01703684250421e-01 2.61337426880148e-02 
2.96875000000000e+00 1.01100909498683e-01 2.60794539961839e-02 
2.98958333333333e+00 1.00500178457791e-01 2.60231857068730e-02 
3.01041666666667e+00 9.99015334028853e-02 2.59650235444610e-02 
3.03125000000000e+00 9.93048673376896e-02 2.59050658790474e-02 
3.05208333333333e+00 9.87102142104609e-02 2.58434052970828e-02 
3.07291666666667e+00 9.81176087680965e-02 2.57801740635197e-02 
3.09375000000000e+00 9.75270830016308e-02 2.57154591408141e-02 
3.11458333333333e+00 9.69386580331746e-02 2.56493089592934e-02 
3.13541666666667e+00 9.63523240767665e-02 2.55817750116814e-02 
3.15625000000000e+00 9.57681098580513e-02 2.55128900792791e-02 
3.17708333333333e+00 9.51860433728412e-02 2.54426912278914e-02 
3.19791666666667e+00 9.46061514361978e-02 2.53712371701026e-02 
3.21875000000000e+00 9.40288789113213e-02 2.52985842484740e-02 
3.23958333333333e+00 9.34548755611291e-02 2.52247768436149e-02 
3.26041666666667e+00 9.28841608905897e-02 2.51498288094641e-02 
3.28125000000000e+00 9.23167524921898e-02 2.50736873399764e-02 
3.30208333333333e+00 9.17526685190370e-02 2.49963570146250e-02 
3.32291666666667e+00 9.11909005174214e-02 2.49179546001160e-02 
3.34375000000000e+00 9.06307889132050e-02 2.48385059490917e-02 
3.36458333333333e+00 9.00723588923691e-02 2.47580013033773e-02 
3.38541666666667e+00 8.95156349431512e-02 2.46764683867270e-02 
3.40625000000000e+00 8.89606410250257e-02 2.45939345966720e-02 
3.42708333333333e+00 8.84075005473361e-02 2.45104417960772e-02 
3.44791666666667e+00 8.78562574269160e-02 2.44260742310104e-02 
3.46875000000000e+00 8.73069296143820e-02 2.43409217437301e-02 
3.48958333333333e+00 8.67595340149410e-02 2.42550417183863e-02 
3.51041666666667e+00 8.62140868834122e-02 2.41684668053885e-02 
3.53125000000000e+00 8.56705583514878e-02 2.40812273629561e-02 
3.55208333333333e+00 8.51289637637523e-02 2.39933295187341e-02 
3.57291666666667e+00 8.45893184198965e-02 2.39047878481854e-02 
3.59375000000000e+00 8.40516369957961e-02 2.38156357822277e-02 
3.61458333333333e+00 8.35159148345589e-02 2.37259189932755e-02 
3.63541666666667e+00 8.29820915943963e-02 2.36357199412710e-02 
3.65625000000000e+00 8.24501807854049e-02 2.35451101766121e-02 
3.67708333333333e+00 8.19201922097069e-02 2.34540975626567e-02 
3.69791666666667e+00 8.13921364277505e-02 2.33626721638009e-02 
3.71875000000000e+00 8.08658835333134e-02 2.32708617157572e-02 
3.73958333333333e+00 8.03412350170973e-02 2.31786794469862e-02 
3.76041666666667e+00 7.98182035744451e-02 2.30860982539307e-02 
3.78125000000000e+00 7.92968022497895e-02 2.29931199869899e-02 
3.80208333333333e+00 7.87770437028581e-02 2.28997981469723e-02 
3.82291666666667e+00 7.82588712851602e-02 2.28063151634397e-02 
3.84375000000000e+00 7.77422441039922e-02 2.27129185765246e-02 
3.86458333333333e+00 7.72271609083364e-02 2.26197557386806e-02 
3.88541666666667e+00 7.67136202596078e-02 2.25268726643374e-02 
3.90625000000000e+00 7.62016201349674e-02 2.24342824179293e-02 
3.92708333333333e+00 7.56912867843396e-02 2.23420130209871e-02 
3.94791666666667e+00 7.51826472357147e-02 2.22501598371794e-02 
3.96875000000000e+00 7.46756940469268e-02 2.21587925670308e-02 
3.98958333333333e+00 7.41704188997250e-02 2.20679256547188e-02 
4.01041666666667e+00 7.36668136373903e-02 2.19774248434589e-02 
4.03125000000000e+00 7.31651963122645e-02 2.18870953922289e-02 
4.05208333333333e+00 7.26655661754397e-02 2.17970116834875e-02 
4.07291666666667e+00 7.21679165381523e-02 2.17072482972230e-02 
4.09375000000000e+00 7.16722408449953e-02 2.16178010768047e-02 
4.11458333333333e+00 7.11783801728101e-02 2.15287032421837e-02 
4.13541666666667e+00 7.06857221922898e-02 2.14399640620201e-02 
4.15625000000000e+00 7.01942677080143e-02 2.13514197098934e-02 
4.17708333333333e+00 6.97040205227522e-02 2.12629880291939e-02 
4.19791666666667e+00 6.92149776312052e-02 2.11746159337824e-02 
4.21875000000000e+00 6.87274196444862e-02 2.10862561786669e-02 
4.23958333333333e+00 6.82417793739901e-02 2.09979319190669e-02 
4.26041666666667e+00 6.77580547409134e-02 2.09097054440963e-02 
4.28125000000000e+00 6.72762444732601e-02 2.08215848930483e-02 
4.30208333333333e+00 6.67963469913092e-02 2.07335630148803e-02 
4.32291666666667e+00 6.63183885450647e-02 2.06456512099501e-02 
4.34375000000000e+00 6.58423847179932e-02 2.05579462761342e-02 
4.36458333333333e+00 6.53683297056705e-02 2.04705452786337e-02 
4.38541666666667e+00 6.48962164280082e-02 2.03834750668119e-02 
4.40625000000000e+00 6.44260378191041e-02 2.02966514060966e-02 
4.42708333333333e+00 6.39577002002957e-02 2.02099341196848e-02 
4.44791666666667e+00 6.34911811705108e-02 2.01232727091834e-02 
4.46875000000000e+00 6.30264804033416e-02 2.00366873711795e-02 
4.48958333333333e+00 6.25635976810688e-02 1.99501837213789e-02 
4.51041666666667e+00 6.21025326254788e-02 1.98638048498063e-02 
4.53125000000000e+00 6.16432228049968e-02 1.97776847368290e-02 
4.55208333333333e+00 6.11856625389773e-02 1.96919533278526e-02 
4.57291666666667e+00 6.07298437614806e-02 1.96066596376978e-02 
4.59375000000000e+00 6.02757582574962e-02 1.95217983927480e-02 
4.61458333333333e+00 5.98233987371126e-02 1.94373105747866e-02 
4.63541666666667e+00 5.93727622395994e-02 1.93530142132868e-02 
4.65625000000000e+00 5.89238511991842e-02 1.92686815583230e-02 
4.67708333333333e+00 5.84766707829065e-02 1.91842062316878e-02 
4.69791666666667e+00 5.80312265983590e-02 1.90995534828082e-02 
4.71875000000000e+00 5.75874969554414e-02 1.90146232647718e-02 
4.73958333333333e+00 5.71454500522415e-02 1.89292791759105e-02 
4.76041666666667e+00 5.67050999913852e-02 1.88434495049093e-02 
4.78125000000000e+00 5.62664610778595e-02 1.87571365839783e-02 
4.80208333333333e+00 5.58295471893864e-02 1.86703500248544e-02 
4.82291666666667e+00 5.53944185787168e-02 1.85830939959560e-02 
4.84375000000000e+00 5.49611187766815e-02 1.84954078891846e-02 
4.86458333333333e+00 5.45296588949146e-02 1.84073461288385e-02 
4.88541666666667e+00 5.41000493448748e-02 1.83189387793264e-02 
4.90625000000000e+00 5.36723001732626e-02 1.82301883238029e-02 
4.92708333333333e+00 5.32464835441282e-02 1.81411014866149e-02 
4.94791666666667e+00 5.28226236931301e-02 1.80517246268804e-02 
4.96875000000000e+00 5.24007282347891e-02 1.79620847194347e-02 
4.98958333333333e+00 5.19808046774939e-02 1.78721919835958e-02 
5.01041666666667e+00 5.15628601594173e-02 1.77821172467026e-02 
5.03125000000000e+00 5.11463960882276e-02 1.76920259481071e-02 
5.05208333333333e+00 5.07314193417447e-02 1.76018941459089e-02 
5.07291666666667e+00 5.03179377771156e-02 1.75117061746241e-02 
5.09375000000000e+00 4.99059590306382e-02 1.74214710288879e-02 
5.11458333333333e+00 4.94955574240050e-02 1.73312062981136e-02 
5.13541666666667e+00 4.90870048549303e-02 1.72409413870396e-02 
5.15625000000000e+00 4.86803029038233e-02 1.71507572714309e-02 
5.17708333333333e+00 4.82754520932443e-02 1.70606797073014e-02 
5.19791666666667e+00 4.78724527607622e-02 1.69707068773476e-02 
5.21875000000000e+00 4.74712582349596e-02 1.68808767759660e-02 
5.23958333333333e+00 4.70717972448116e-02 1.67912756477629e-02 
5.26041666666667e+00 4.66740676052361e-02 1.67019402183359e-02 
5.28125000000000e+00 4.62780671559997e-02 1.66128695327905e-02 
5.30208333333333e+00 4.58837937266965e-02 1.65240543386892e-02 
5.32291666666667e+00 4.54911062007921e-02 1.64354966765528e-02 
5.34375000000000e+00 4.50999120761589e-02 1.63471869250492e-02 
5.36458333333333e+00 4.47102122406002e-02 1.62591124644293e-02 
5.38541666666667e+00 4.43220076562960e-02 1.61712741960925e-02 
5.40625000000000e+00 4.39352991104511e-02 1.60836318468160e-02 
5.42708333333333e+00 4.35500920914692e-02 1.59961188396860e-02 
5.44791666666667e+00 4.31663918174246e-02 1.59087319687637e-02 
5.46875000000000e+00 4.27842015146299e-02 1.58214903063337e-02 
5.48958333333333e+00 4.24035241535741e-02 1.57343938184507e-02 
5.51041666666667e+00 4.20243626600339e-02 1.56474224572225e-02 
5.53125000000000e+00 4.16470534372626e-02 1.55604609414841e-02 
5.55208333333333e+00 4.12715995216750e-02 1.54734703782778e-02 
5.57291666666667e+00 4.08980048796707e-02 1.53864383442025e-02 
5.59375000000000e+00 4.05262731553098e-02 1.52993769196824e-02 
5.61458333333333e+00 4.01563861778193e-02 1.52123246769239e-02 
5.63541666666667e+00 3.97882604051308e-02 1.51254054518740e-02 
5.65625000000000e+00 3.94218950394218e-02 1.50387485386060e-02 
5.67708333333333e+00 3.90572863377446e-02 1.49524059080385e-02 
5.69791666666667e+00 3.86944306114627e-02 1.48663793849290e-02 
5.71875000000000e+00 3.83333659748454e-02 1.47805776235327e-02 
5.73958333333333e+00 3.79741551292435e-02 1.46947778431226e-02 
5.76041666666667e+00 3.76168039213904e-02 1.46088225705774e-02 
5.78125000000000e+00 3.72613197678007e-02 1.45226844742898e-02 
5.80208333333333e+00 3.69077097548727e-02 1.44363307274010e-02 
5.82291666666667e+00 3.65559244264767e-02 1.43497658180325e-02 
5.84375000000000e+00 3.62059336621550e-02 1.42631045521119e-02 
5.86458333333333e+00 3.58577426302210e-02 1.41764237155879e-02 
5.88541666666667e+00 3.55113557014502e-02 1.40897257307441e-02 
5.90625000000000e+00 3.51667772043660e-02 1.40030495217128e-02 
5.92708333333333e+00 3.48234539757861e-02 1.39165691376871e-02 
5.94791666666667e+00 3.44812539882560e-02 1.38303170833728e-02 
5.96875000000000e+00 3.41401840293987e-02 1.37442998842563e-02 
5.98958333333333e+00 3.38002504422597e-02 1.36585280347902e-02 
6.01041666666667e+00 3.34614593422858e-02 1.35728410375235e-02 
6.03125000000000e+00 3.31238345068590e-02 1.34869241485226e-02 
6.05208333333333e+00 3.27873968848781e-02 1.34006501492052e-02 
6.07291666666667e+00 3.24521671657898e-02 1.33140581325877e-02 
6.09375000000000e+00 3.21181652879090e-02 1.32271918190444e-02 
6.11458333333333e+00 3.17854974884736e-02 1.31401552364299e-02 
6.13541666666667e+00 3.14545246681800e-02 1.30530383494201e-02 
6.15625000000000e+00 3.11252536959689e-02 1.29659061389779e-02 
6.17708333333333e+00 3.07976920136212e-02 1.28787511144391e-02 
6.19791666666667e+00 3.04718467457371e-02 1.27915481725516e-02 
6.21875000000000e+00 3.01477290645117e-02 1.27041909605035e-02 
6.23958333333333e+00 2.98253551011041e-02 1.26165996174214e-02 
6.26041666666667e+00 2.95047375364347e-02 1.25288081762117e-02 
6.28125000000000e+00 2.91858871919250e-02 1.24408648691124e-02 
6.30208333333333e+00 2.88688144109363e-02 1.23528061392172e-02 
6.32291666666667e+00 2.85535275900755e-02 1.22646309927046e-02 
6.34375000000000e+00 2.82400368460099e-02 1.21762576978341e-02 
6.36458333333333e+00 2.79283554894987e-02 1.20876328668441e-02 
6.38541666666667e+00 2.76184967666603e-02 1.19987676649677e-02 
6.40625000000000e+00 2.73104733993783e-02 1.19095195978241e-02 
6.42708333333333e+00 2.70043166847189e-02 1.18195990700367e-02 
6.44791666666667e+00 2.67000570660378e-02 1.17288968452809e-02 
6.46875000000000e+00 2.63977210199121e-02 1.16374546311757e-02 
