Energy(eV)           EEDF(eV^-(3/2))      Anisotropy(eV^-(3/2))
8.68055555555556e-03 6.30344704230378e-01 3.04676649022004e-02 
2.60416666666667e-02 6.27787163563391e-01 2.49484705394492e-02 
4.34027777777778e-02 6.23190440298927e-01 4.82155136496465e-02 
6.07638888888889e-02 6.17236192421150e-01 6.71563944611552e-02 
7.81250000000000e-02 6.10735903475371e-01 8.03571480705366e-02 
9.54861111111111e-02 6.04055242653253e-01 8.88759081424083e-02 
1.12847222222222e-01 5.97591458520636e-01 9.38883264136786e-02 
1.30208333333333e-01 5.91395875107871e-01 9.67991247411474e-02 
1.47569444444444e-01 5.85337759435811e-01 9.91866079611978e-02 
1.64930555555556e-01 5.79462094113463e-01 1.01493286072911e-01 
1.82291666666667e-01 5.73912463448118e-01 1.02551517794203e-01 
1.99652777777778e-01 5.68654529335939e-01 1.02762587149532e-01 
2.17013888888889e-01 5.63610802871704e-01 1.03068566638107e-01 
2.34375000000000e-01 5.58712727514893e-01 1.03146187868289e-01 
2.51736111111111e-01 5.53979417167164e-01 1.03032990079162e-01 
2.69097222222222e-01 5.49441015033292e-01 1.04374087977089e-01 
2.86458333333333e-01 5.44992028502374e-01 1.06986569382059e-01 
3.03819444444445e-01 5.40662143188093e-01 1.07154103332569e-01 
3.21180555555556e-01 5.36539444883422e-01 1.04470027112372e-01 
3.38541666666667e-01 5.32548767210396e-01 1.01190311997729e-01 
3.55902777777778e-01 5.28840959091891e-01 9.76718122263246e-02 
3.73263888888889e-01 5.25323421997852e-01 9.42113925054660e-02 
3.90625000000000e-01 5.21966282477393e-01 9.25544011868243e-02 
4.07986111111111e-01 5.18645179624575e-01 9.26243485790842e-02 
4.25347222222222e-01 5.15347980453861e-01 9.18232507328242e-02 
4.42708333333333e-01 5.12138178211465e-01 8.93856610029300e-02 
4.60069444444445e-01 5.08852058306319e-01 8.59875409926833e-02 
4.77430555555556e-01 5.05925024540124e-01 8.28922203872199e-02 
4.94791666666667e-01 5.03107911931226e-01 8.09611234930645e-02 
5.12152777777778e-01 5.00370299455702e-01 8.04519079908278e-02 
5.29513888888889e-01 4.97623319604260e-01 8.13671290577743e-02 
5.46875000000000e-01 4.94853392560175e-01 8.16270773434199e-02 
5.64236111111111e-01 4.92117160023188e-01 7.97568363194803e-02 
5.81597222222222e-01 4.89243987869845e-01 7.67667127830403e-02 
5.98958333333333e-01 4.86745177629007e-01 7.47386093928988e-02 
6.16319444444445e-01 4.84293232135132e-01 7.48538561770227e-02 
6.33680555555556e-01 4.81851483896439e-01 7.59658654382046e-02 
6.51041666666667e-01 4.79407604791601e-01 7.67599443030287e-02 
6.68402777777778e-01 4.76996395601262e-01 7.70419502384995e-02 
6.85763888888889e-01 4.74616631197013e-01 7.61813189597464e-02 
7.03125000000000e-01 4.72106767138855e-01 7.43008150497728e-02 
7.20486111111111e-01 4.69905897095258e-01 7.35470979963056e-02 
7.37847222222222e-01 4.67695665558363e-01 7.44211543793117e-02 
7.55208333333333e-01 4.65458851817929e-01 7.55180149622171e-02 
7.72569444444445e-01 4.63199707588877e-01 7.65069289515812e-02 
7.89930555555556e-01 4.60920849639326e-01 7.66529581480849e-02 
8.07291666666667e-01 4.58477714319471e-01 7.58227188002435e-02 
8.24652777777778e-01 4.56173438246172e-01 7.56839909338699e-02 
8.42013888888889e-01 4.53843531761028e-01 7.68766114847983e-02 
8.59375000000000e-01 4.51420036289447e-01 7.86026402632391e-02 
8.76736111111111e-01 4.48889901154121e-01 8.05174504106173e-02 
8.94097222222222e-01 4.46249883849045e-01 8.22312580180046e-02 
9.11458333333334e-01 4.43472182608519e-01 8.34232921309971e-02 
9.28819444444445e-01 4.40618885124736e-01 8.45810352288094e-02 
9.46180555555556e-01 4.37793122014920e-01 8.64164548203605e-02 
9.63541666666667e-01 4.34884730264017e-01 8.87406195705917e-02 
9.80902777777778e-01 4.31886040052587e-01 9.12385593922763e-02 
9.98263888888889e-01 4.28792078106031e-01 9.37868735291719e-02 
1.01562500000000e+00 4.25592771990279e-01 9.61699391443423e-02 
1.03298611111111e+00 4.22236058411794e-01 9.82451238425828e-02 
1.05034722222222e+00 4.18781092149802e-01 1.00360034649633e-01 
1.06770833333333e+00 4.15260554406367e-01 1.02822258442725e-01 
1.08506944444444e+00 4.11613762477642e-01 1.05426875455182e-01 
1.10243055555556e+00 4.07839173311845e-01 1.07994963143876e-01 
1.11979166666667e+00 4.03938396722179e-01 1.10522608476093e-01 
1.13715277777778e+00 3.99911011954407e-01 1.12904576024901e-01 
1.15451388888889e+00 3.95716963981986e-01 1.15124416938948e-01 
1.17187500000000e+00 3.91450251196475e-01 1.17476321495479e-01 
1.18923611111111e+00 3.87051814697987e-01 1.19919255533615e-01 
1.20659722222222e+00 3.82519893002198e-01 1.22301902871631e-01 
1.22395833333333e+00 3.77847750936534e-01 1.24580320258254e-01 
1.24131944444444e+00 3.73026538152983e-01 1.26699825141402e-01 
1.25868055555556e+00 3.68060254926847e-01 1.28675660485413e-01 
1.27604166666667e+00 3.62974899993890e-01 1.30557161037206e-01 
1.29340277777778e+00 3.57753386015305e-01 1.32280994904076e-01 
1.31076388888889e+00 3.52399413351250e-01 1.33774382265178e-01 
1.32812500000000e+00 3.46915011748034e-01 1.35007088951717e-01 
1.34548611111111e+00 3.41306621457225e-01 1.35938962214647e-01 
1.36284722222222e+00 3.35572452439717e-01 1.36553651366841e-01 
1.38020833333333e+00 3.29744690773797e-01 1.36883547701251e-01 
1.39756944444444e+00 3.23819470889357e-01 1.36917723739935e-01 
1.41493055555556e+00 3.17807991851150e-01 1.36634285815012e-01 
1.43229166666667e+00 3.11721441085830e-01 1.36041178108592e-01 
1.44965277777778e+00 3.05570798202317e-01 1.35148827809358e-01 
1.46701388888889e+00 2.99367992964369e-01 1.33984156169352e-01 
1.48437500000000e+00 2.93130803999841e-01 1.32587805501746e-01 
1.50173611111111e+00 2.86869306278575e-01 1.30993267975511e-01 
1.51909722222222e+00 2.80614153331302e-01 1.29229445233821e-01 
1.53645833333333e+00 2.74388189625857e-01 1.27331001072294e-01 
1.55381944444444e+00 2.68204123230761e-01 1.25333307725709e-01 
1.57118055555556e+00 2.62072181294165e-01 1.23271467241036e-01 
1.58854166666667e+00 2.56003316159548e-01 1.21173109871943e-01 
1.60590277777778e+00 2.50005533359453e-01 1.19057923219950e-01 
1.62326388888889e+00 2.44100880748157e-01 1.16933155416363e-01 
1.64062500000000e+00 2.38298399022969e-01 1.14802415806545e-01 
1.65798611111111e+00 2.32599627175429e-01 1.12664759893433e-01 
1.67534722222222e+00 2.27007148540508e-01 1.10516342484279e-01 
1.69270833333333e+00 2.21522447859964e-01 1.08347736454063e-01 
1.71006944444444e+00 2.16144733275224e-01 1.06150377949076e-01 
1.72743055555556e+00 2.10900839606523e-01 1.03907016205504e-01 
1.74479166666667e+00 2.05788727090145e-01 1.01609248643305e-01 
1.76215277777778e+00 2.00807652069940e-01 9.92521084425886e-02 
1.77951388888889e+00 1.95958190129038e-01 9.68369662743100e-02 
1.79687500000000e+00 1.91240555343631e-01 9.43724540034062e-02 
1.81423611111111e+00 1.86655229005194e-01 9.18764479315535e-02 
1.83159722222222e+00 1.82204075567874e-01 8.93709394753777e-02 
1.84895833333333e+00 1.77886058673448e-01 8.68834396477220e-02 
1.86631944444444e+00 1.73701534328872e-01 8.44435514036123e-02 
1.88368055555556e+00 1.69648962162181e-01 8.20753864349867e-02 
1.90104166666667e+00 1.65726103092780e-01 7.97969235948523e-02 
1.91840277777778e+00 1.61942712612656e-01 7.76153008164519e-02 
1.93576388888889e+00 1.58303650942237e-01 7.55286563749326e-02 
1.95312500000000e+00 1.54804334999328e-01 7.35288952480330e-02 
1.97048611111111e+00 1.51441626106374e-01 7.16020266699518e-02 
1.98784722222222e+00 1.48210386439074e-01 6.97346381042501e-02 
2.00520833333333e+00 1.45108444581265e-01 6.79158160497789e-02 
2.02256944444445e+00 1.42130592359232e-01 6.61386711821802e-02 
2.03993055555556e+00 1.39272166611356e-01 6.43992600236724e-02 
2.05729166666667e+00 1.36528475530922e-01 6.26992485001179e-02 
2.07465277777778e+00 1.33893597844458e-01 6.10424833305237e-02 
2.09201388888889e+00 1.31361278445758e-01 5.94316239840075e-02 
2.10937500000000e+00 1.28926123880699e-01 5.78652290789053e-02 
2.12673611111111e+00 1.26566772106320e-01 5.63478096041725e-02 
2.14409722222222e+00 1.24280389165566e-01 5.48742085712806e-02 
2.16145833333333e+00 1.22064739921516e-01 5.34403060552378e-02 
2.17881944444445e+00 1.19917113518043e-01 5.20430371870135e-02 
2.19618055555556e+00 1.17838618524630e-01 5.06807498349763e-02 
2.21354166666667e+00 1.15826122832979e-01 4.93549802534179e-02 
2.23090277777778e+00 1.13875841938009e-01 4.80696578162968e-02 
2.24826388888889e+00 1.11988007261313e-01 4.68279162552980e-02 
2.26562500000000e+00 1.10160794259285e-01 4.56345268444032e-02 
2.28298611111111e+00 1.08392383042927e-01 4.44958064803330e-02 
2.30034722222222e+00 1.06680215891316e-01 4.34137957936642e-02 
2.31770833333333e+00 1.05019298525552e-01 4.23867442294871e-02 
2.33506944444445e+00 1.03406522400565e-01 4.14097368694739e-02 
2.35243055555556e+00 1.01837156678107e-01 4.04776309385391e-02 
2.36979166666667e+00 1.00308327860665e-01 3.95875466403296e-02 
2.38715277777778e+00 9.88175128409954e-02 3.87356182714010e-02 
2.40451388888889e+00 9.73624892059534e-02 3.79162310409713e-02 
2.42187500000000e+00 9.59435422275147e-02 3.71266050605529e-02 
2.43923611111111e+00 9.45606042563635e-02 3.63647631959819e-02 
2.45659722222222e+00 9.32127479631755e-02 3.56323179358124e-02 
2.47395833333333e+00 9.19012682273276e-02 3.49337340352269e-02 
2.49131944444445e+00 9.06242317680456e-02 3.42721585729757e-02 
2.50868055555556e+00 8.93811106768902e-02 3.36468841867090e-02 
2.52604166666667e+00 8.81655806841990e-02 3.30553954954661e-02 
2.54340277777778e+00 8.69756673128939e-02 3.24928473166248e-02 
2.56076388888889e+00 8.58099645634291e-02 3.19589001604075e-02 
2.57812500000000e+00 8.46665708412317e-02 3.14491448943426e-02 
2.59548611111111e+00 8.35425544184533e-02 3.09568359760326e-02 
2.61284722222222e+00 8.24380079398951e-02 3.04773059861495e-02 
2.63020833333333e+00 8.13510717900698e-02 3.00058023315183e-02 
2.64756944444445e+00 8.02819657214092e-02 2.95397418533457e-02 
2.66493055555556e+00 7.92312811013314e-02 2.90801715949091e-02 
2.68229166666667e+00 7.81985131607468e-02 2.86277330342716e-02 
2.69965277777778e+00 7.71843487826912e-02 2.81862010411815e-02 
2.71701388888889e+00 7.61893200877905e-02 2.77596353996734e-02 
2.73437500000000e+00 7.52120031516071e-02 2.73499644483974e-02 
2.75173611111111e+00 7.42527444797492e-02 2.69592123513451e-02 
2.76909722222222e+00 7.33099944562351e-02 2.65866055250344e-02 
2.78645833333333e+00 7.23823360503189e-02 2.62287231589298e-02 
2.80381944444445e+00 7.14691183112805e-02 2.58830837573446e-02 
2.82118055555556e+00 7.05670227810774e-02 2.55462239480063e-02 
2.83854166666667e+00 6.96751396631882e-02 2.52147823312809e-02 
2.85590277777778e+00 6.87938072231576e-02 2.48868967043656e-02 
2.87326388888889e+00 6.79221775660625e-02 2.45609214823174e-02 
2.89062500000000e+00 6.70608565174109e-02 2.42375270254519e-02 
2.90798611111111e+00 6.62100713296715e-02 2.39185467488368e-02 
2.92534722222222e+00 6.53696373092720e-02 2.36053159791178e-02 
2.94270833333333e+00 6.45398802478083e-02 2.32999012975552e-02 
2.96006944444445e+00 6.37204332030312e-02 2.30033162068915e-02 
2.97743055555556e+00 6.29107303688166e-02 2.27155485379236e-02 
2.99479166666667e+00 6.21105128622994e-02 2.24361723103733e-02 
3.01215277777778e+00 6.13185025746607e-02 2.21639157577903e-02 
3.02951388888889e+00 6.05345146230564e-02 2.18976090425258e-02 
3.04687500000000e+00 5.97583106759810e-02 2.16359692403688e-02 
3.06423611111111e+00 5.89893648135031e-02 2.13770610117103e-02 
3.08159722222222e+00 5.82276702808628e-02 2.11192395782985e-02 
3.09895833333333e+00 5.74733766709581e-02 2.08601175259382e-02 
3.11631944444445e+00 5.67265819793716e-02 2.05987578787174e-02 
3.13368055555556e+00 5.59877248181663e-02 2.03379408803982e-02 
3.15104166666667e+00 5.52567607302170e-02 2.00803721805571e-02 
3.16840277777778e+00 5.45335814466150e-02 1.98265063999675e-02 
3.18576388888889e+00 5.38181854811309e-02 1.95761796753308e-02 
3.20312500000000e+00 5.31101245136164e-02 1.93293555795215e-02 
3.22048611111111e+00 5.24095928978266e-02 1.90863371698632e-02 
3.23784722222222e+00 5.17166081171900e-02 1.88464000706031e-02 
3.25520833333333e+00 5.10309093857515e-02 1.86067411352971e-02 
3.27256944444445e+00 5.03525438397007e-02 1.83650832406366e-02 
3.28993055555556e+00 4.96816063102553e-02 1.81208393157847e-02 
3.30729166666667e+00 4.90181972948807e-02 1.78741939409114e-02 
3.32465277777778e+00 4.83620663662684e-02 1.76254695064416e-02 
3.34201388888889e+00 4.77133517060484e-02 1.73740468453453e-02 
3.35937500000000e+00 4.70721798009940e-02 1.71193275720282e-02 
3.37673611111111e+00 4.64388020463116e-02 1.68614259107912e-02 
3.39409722222222e+00 4.58133305543167e-02 1.66005390816384e-02 
3.41145833333333e+00 4.51958680857343e-02 1.63375104725437e-02 
3.42881944444445e+00 4.45864968355675e-02 1.60737580749206e-02 
3.44618055555556e+00 4.39851627750312e-02 1.58096697465650e-02 
3.46354166666667e+00 4.33919217129230e-02 1.55450201184539e-02 
3.48090277777778e+00 4.28068594938675e-02 1.52797884500292e-02 
3.49826388888889e+00 4.22300218148178e-02 1.50139832878103e-02 
3.51562500000000e+00 4.16615063629089e-02 1.47477734980678e-02 
3.53298611111111e+00 4.11014204691383e-02 1.44813252116118e-02 
3.55034722222222e+00 4.05498351857839e-02 1.42144019708078e-02 
3.56770833333333e+00 4.00067528880969e-02 1.39479809514843e-02 
3.58506944444445e+00 3.94725696321358e-02 1.36852550628670e-02 
3.60243055555556e+00 3.89474818544342e-02 1.34298277856609e-02 
3.61979166666667e+00 3.84315153717148e-02 1.31832618818200e-02 
3.63715277777778e+00 3.79241132100721e-02 1.29443023110604e-02 
3.65451388888889e+00 3.74255431080228e-02 1.27103618263832e-02 
3.67187500000000e+00 3.69357878580319e-02 1.24804714659277e-02 
3.68923611111111e+00 3.64546886045394e-02 1.22544984513381e-02 
3.70659722222222e+00 3.59820963699352e-02 1.20325797553445e-02 
3.72395833333333e+00 3.55178538181193e-02 1.18151919691407e-02 
3.74131944444445e+00 3.50617043182734e-02 1.16022649153568e-02 
3.75868055555556e+00 3.46134922421245e-02 1.13928638789088e-02 
3.77604166666667e+00 3.41731221902569e-02 1.11861847588286e-02 
3.79340277777778e+00 3.37404950969334e-02 1.09820226814718e-02 
3.81076388888889e+00 3.33154750149138e-02 1.07805596318300e-02 
3.82812500000000e+00 3.28979959237238e-02 1.05820456964748e-02 
3.84548611111111e+00 3.24879335314308e-02 1.03865360481796e-02 
3.86284722222222e+00 3.20851722703224e-02 1.01939239201882e-02 
3.88020833333333e+00 3.16896231606923e-02 1.00041108027355e-02 
3.89756944444445e+00 3.13010983557385e-02 9.81720560946515e-03 
3.91493055555556e+00 3.09195131464496e-02 9.63372505929407e-03 
3.93229166666667e+00 3.05448315573844e-02 9.45415284683323e-03 
3.94965277777778e+00 3.01769043257024e-02 9.27859280056406e-03 
3.96701388888889e+00 2.98155811095642e-02 9.10718271510997e-03 
3.98437500000000e+00 2.94609555727391e-02 8.93997090830146e-03 
4.00173611111111e+00 2.91129397515452e-02 8.77696526906455e-03 
4.01909722222222e+00 2.87713323540088e-02 8.61828366068038e-03 
4.03645833333333e+00 2.84359351863330e-02 8.46400298308853e-03 
4.05381944444445e+00 2.81065689916731e-02 8.31408201149903e-03 
4.07118055555556e+00 2.77832480597789e-02 8.16838026654036e-03 
4.08854166666667e+00 2.74658792652303e-02 8.02686135202842e-03 
4.10590277777778e+00 2.71542840114925e-02 7.88945999362331e-03 
4.12326388888889e+00 2.68481365283077e-02 7.75599656444252e-03 
4.14062500000000e+00 2.65472623235181e-02 7.62616495944391e-03 
4.15798611111111e+00 2.62515236645778e-02 7.49967609925229e-03 
4.17534722222222e+00 2.59607907907046e-02 7.37639766371406e-03 
4.19270833333333e+00 2.56749311762531e-02 7.25635166904503e-03 
4.21006944444445e+00 2.53938239960640e-02 7.13962272887388e-03 
4.22743055555556e+00 2.51174793773160e-02 7.02628695218982e-03 
4.24479166666667e+00 2.48457455470162e-02 6.91637176443380e-03 
4.26215277777778e+00 2.45784633400060e-02 6.80985925094387e-03 
4.27951388888889e+00 2.43154913348497e-02 6.70680026300203e-03 
4.29687500000000e+00 2.40566858222641e-02 6.60719964374856e-03 
4.31423611111111e+00 2.38019069669603e-02 6.51098211615055e-03 
4.33159722222222e+00 2.35510206138288e-02 6.41806593870430e-03 
4.34895833333333e+00 2.33038956734209e-02 6.32832933766575e-03 
4.36631944444445e+00 2.30604052210277e-02 6.24158512674084e-03 
4.38368055555556e+00 2.28204306666074e-02 6.15768249038828e-03 
4.40104166666667e+00 2.25838568342512e-02 6.07650817351364e-03 
4.41840277777778e+00 2.23505638854495e-02 5.99791854065245e-03 
4.43576388888889e+00 2.21204888355034e-02 5.92178265247750e-03 
4.45312500000000e+00 2.18936160253769e-02 5.84802646735238e-03 
4.47048611111111e+00 2.16698454950157e-02 5.77661009613934e-03 
4.48784722222222e+00 2.14490801114833e-02 5.70747951282809e-03 
4.50520833333333e+00 2.12312252076825e-02 5.64035635736366e-03 
4.52256944444445e+00 2.10161143034373e-02 5.57473046177825e-03 
4.53993055555556e+00 2.08039710333638e-02 5.51027157821657e-03 
4.55729166666667e+00 2.05948458722881e-02 5.44705067263585e-03 
4.57465277777778e+00 2.03886754696299e-02 5.38511909705574e-03 
4.59201388888889e+00 2.01853977830521e-02 5.32444582632632e-03 
4.60937500000000e+00 1.99849515362185e-02 5.26493388542575e-03 
4.62673611111111e+00 1.97872623688139e-02 5.20643285751162e-03 
4.64409722222222e+00 1.95923000613862e-02 5.14883108936777e-03 
4.66145833333333e+00 1.94000202292193e-02 5.09207178121070e-03 
4.67881944444445e+00 1.92103799374388e-02 5.03611834974336e-03 
4.69618055555556e+00 1.90233374932355e-02 4.98094871489887e-03 
4.71354166666667e+00 1.88388511255087e-02 4.92652752445789e-03 
4.73090277777778e+00 1.86568792311769e-02 4.87284884958758e-03 
4.74826388888889e+00 1.84773826728773e-02 4.82017981210729e-03 
4.76562500000000e+00 1.83003032851995e-02 4.76904142049756e-03 
4.78298611111111e+00 1.81255639258386e-02 4.71974498530262e-03 
4.80034722222222e+00 1.79530846879739e-02 4.67230904273049e-03 
4.81770833333333e+00 1.77827904167040e-02 4.62671015319492e-03 
4.83506944444445e+00 1.76146086838281e-02 4.58296765097812e-03 
4.85243055555556e+00 1.74484889634000e-02 4.54109661606401e-03 
4.86979166666667e+00 1.72843536530839e-02 4.50107884722477e-03 
4.88715277777778e+00 1.71221269508079e-02 4.46287400443029e-03 
4.90451388888889e+00 1.69617354060809e-02 4.42624536200442e-03 
4.92187500000000e+00 1.68030584953228e-02 4.39072255122463e-03 
4.93923611111111e+00 1.66460393642781e-02 4.35597608594084e-03 
4.95659722222222e+00 1.64906526503063e-02 4.32193351246130e-03 
4.97395833333333e+00 1.63368672908003e-02 4.28858152436408e-03 
4.99131944444445e+00 1.61846526764295e-02 4.25590581618001e-03 
5.00868055555556e+00 1.60339786629284e-02 4.22390602808432e-03 
5.02604166666667e+00 1.58847322686875e-02 4.19264048162376e-03 
5.04340277777778e+00 1.57368788592260e-02 4.16231376785206e-03 
5.06076388888889e+00 1.55903636664264e-02 4.13318365201917e-03 
5.07812500000000e+00 1.54451123665449e-02 4.10524151884282e-03 
5.09548611111111e+00 1.53010670165819e-02 4.07829267640228e-03 
5.11284722222222e+00 1.51581873878881e-02 4.05205834490940e-03 
5.13020833333333e+00 1.50164344559713e-02 4.02623097711297e-03 
5.14756944444445e+00 1.48757956479216e-02 4.00068439837727e-03 
5.16493055555556e+00 1.47362685089191e-02 3.97542050789025e-03 
5.18229166666667e+00 1.45978748782240e-02 3.95043462212587e-03 
5.19965277777778e+00 1.44606017145589e-02 3.92571434180161e-03 
5.21701388888889e+00 1.43244257235495e-02 3.90122444988695e-03 
5.23437500000000e+00 1.41893246275397e-02 3.87693062239185e-03 
5.25173611111111e+00 1.40552890577428e-02 3.85281860457437e-03 
5.26909722222222e+00 1.39223098615910e-02 3.82888531239176e-03 
5.28645833333333e+00 1.37903806078101e-02 3.80512806637071e-03 
5.30381944444445e+00 1.36594936246793e-02 3.78154399897780e-03 
5.32118055555556e+00 1.35296210039263e-02 3.75813190828291e-03 
5.33854166666667e+00 1.34007468745203e-02 3.73488838597509e-03 
5.35590277777778e+00 1.32728630140066e-02 3.71180942129016e-03 
5.37326388888889e+00 1.31459613420228e-02 3.68889155431993e-03 
5.39062500000000e+00 1.30200338834860e-02 3.66613278827548e-03 
