Energy(eV)           EEDF(eV^-(3/2))      Anisotropy(eV^-(3/2))
1.50000000000000e-02 4.14259526446246e-01 5.63919066797054e-03 
4.50000000000000e-02 4.14142665536930e-01 4.42268583202926e-03 
7.50000000000000e-02 4.13940651244892e-01 7.96368339719834e-03 
1.05000000000000e-01 4.13665519194014e-01 1.04816491445815e-02 
1.35000000000000e-01 4.13346741572416e-01 1.21582641298883e-02 
1.65000000000000e-01 4.12980950871995e-01 1.33871803403222e-02 
1.95000000000000e-01 4.12590826649881e-01 1.42520241627057e-02 
2.25000000000000e-01 4.12177783851896e-01 1.49282046290625e-02 
2.55000000000000e-01 4.11737420567429e-01 1.58526646623801e-02 
2.85000000000000e-01 4.11258759905380e-01 1.68961399139324e-02 
3.15000000000000e-01 4.10751374838130e-01 1.73347515104544e-02 
3.45000000000000e-01 4.10231031671511e-01 1.72746772527532e-02 
3.75000000000000e-01 4.09707286921256e-01 1.75694005109982e-02 
4.05000000000000e-01 4.09150338789236e-01 1.83163969010787e-02 
4.35000000000000e-01 4.08556128258795e-01 1.86757371137403e-02 
4.65000000000000e-01 4.07939681297548e-01 1.87267808480103e-02 
4.95000000000000e-01 4.07317716117209e-01 1.95022471105656e-02 
5.25000000000000e-01 4.06640240807054e-01 2.09764140328562e-02 
5.55000000000000e-01 4.05905000714524e-01 2.20820597007032e-02 
5.85000000000000e-01 4.05122103837800e-01 2.28656339595157e-02 
6.15000000000000e-01 4.04323384797280e-01 2.44119732400905e-02 
6.45000000000000e-01 4.03450907767487e-01 2.66905514752774e-02 
6.75000000000000e-01 4.02492645726815e-01 2.89465805289430e-02 
7.05000000000000e-01 4.01431673700172e-01 3.11599466356509e-02 
7.35000000000000e-01 4.00310387170004e-01 3.41533443219077e-02 
7.65000000000000e-01 3.99058355907879e-01 3.79097798595618e-02 
7.95000000000000e-01 3.97654949992250e-01 4.20532493595673e-02 
8.25000000000000e-01 3.96068468828323e-01 4.64556701736773e-02 
8.55000000000000e-01 3.94305546069799e-01 5.14169722630987e-02 
8.85000000000000e-01 3.92318068685815e-01 5.69447792479318e-02 
9.15000000000000e-01 3.90082062773061e-01 6.28967852966224e-02 
9.45000000000000e-01 3.87590854587931e-01 6.92574470899995e-02 
9.75000000000000e-01 3.84824114858883e-01 7.59578711264636e-02 
1.00500000000000e+00 3.81765612491181e-01 8.28638357635974e-02 
1.03500000000000e+00 3.78360978873985e-01 8.97959847901742e-02 
1.06500000000000e+00 3.74574065889341e-01 9.66904816544914e-02 
1.09500000000000e+00 3.70384892357648e-01 1.03485029773043e-01 
1.12500000000000e+00 3.65783441414787e-01 1.10110696914348e-01 
1.15500000000000e+00 3.60749968495443e-01 1.16587786662344e-01 
1.18500000000000e+00 3.55301062415818e-01 1.23052284383979e-01 
1.21500000000000e+00 3.49395358789262e-01 1.29458650318199e-01 
1.24500000000000e+00 3.42912638109415e-01 1.35618738651089e-01 
1.27500000000000e+00 3.35827930239999e-01 1.41361730684578e-01 
1.30500000000000e+00 3.28126244244350e-01 1.46406221256354e-01 
1.33500000000000e+00 3.19776127809690e-01 1.50446435912091e-01 
1.36500000000000e+00 3.10775096283088e-01 1.53221550080946e-01 
1.39500000000000e+00 3.01170563399375e-01 1.54554158419831e-01 
1.42500000000000e+00 2.91012423969458e-01 1.54365722906860e-01 
1.45500000000000e+00 2.80377390133874e-01 1.52707013334080e-01 
1.48500000000000e+00 2.69361804720359e-01 1.49768810554188e-01 
1.51500000000000e+00 2.58072820587901e-01 1.45863723018996e-01 
1.54500000000000e+00 2.46776647383635e-01 1.41307013473645e-01 
1.57500000000000e+00 2.35570213079252e-01 1.36442010285813e-01 
1.60500000000000e+00 2.24534382494842e-01 1.31533930112987e-01 
1.63500000000000e+00 2.13790788933048e-01 1.26727923225417e-01 
1.66500000000000e+00 2.03403656168589e-01 1.22068074211698e-01 
1.69500000000000e+00 1.93371816495473e-01 1.17507180258738e-01 
1.72500000000000e+00 1.83727139907489e-01 1.12920327046403e-01 
1.75500000000000e+00 1.74540115010557e-01 1.08150520132115e-01 
1.78500000000000e+00 1.65804970161165e-01 1.03126223263390e-01 
1.81500000000000e+00 1.57527987937622e-01 9.78734036953414e-02 
1.84500000000000e+00 1.49718879538614e-01 9.25333353889032e-02 
1.87500000000000e+00 1.42388773522426e-01 8.73161566925256e-02 
1.90500000000000e+00 1.35528288068906e-01 8.24332754910958e-02 
1.93500000000000e+00 1.29193057045691e-01 7.79834365923686e-02 
1.96500000000000e+00 1.23383566730024e-01 7.39840639714818e-02 
1.99500000000000e+00 1.18063235338957e-01 7.03591267154515e-02 
2.02500000000000e+00 1.13199820964162e-01 6.69815568720028e-02 
2.05500000000000e+00 1.08752358451656e-01 6.37429455522069e-02 
2.08500000000000e+00 1.04683672879539e-01 6.05865729505230e-02 
2.11500000000000e+00 1.00954108184320e-01 5.75003591767502e-02 
2.14500000000000e+00 9.74660449240858e-02 5.45453135591734e-02 
2.17500000000000e+00 9.42062595888428e-02 5.17466010212699e-02 
2.20500000000000e+00 9.11678560548585e-02 4.91290729813205e-02 
2.23500000000000e+00 8.83369494943436e-02 4.67006407309657e-02 
2.26500000000000e+00 8.57063539810084e-02 4.44505693891215e-02 
2.29500000000000e+00 8.32675206527967e-02 4.23553449777884e-02 
2.32500000000000e+00 8.09991389944961e-02 4.03887168462305e-02 
2.35500000000000e+00 7.88802678580618e-02 3.85325587433672e-02 
2.38500000000000e+00 7.68908638507221e-02 3.67770879084763e-02 
2.41500000000000e+00 7.50160944235478e-02 3.51210931239297e-02 
2.44500000000000e+00 7.32551776420935e-02 3.35697280898647e-02 
2.47500000000000e+00 7.16062722051066e-02 3.21249630182095e-02 
2.50500000000000e+00 7.00675730806383e-02 3.07852776213835e-02 
2.53500000000000e+00 6.86276422263422e-02 2.95514618101504e-02 
2.56500000000000e+00 6.72681607512296e-02 2.84101325598944e-02 
2.59500000000000e+00 6.59776094655874e-02 2.73435877107438e-02 
2.62500000000000e+00 6.47475910803573e-02 2.63358761145209e-02 
2.65500000000000e+00 6.35700350153684e-02 2.53744364123865e-02 
2.68500000000000e+00 6.24468334024284e-02 2.44618087702287e-02 
2.71500000000000e+00 6.13795266989425e-02 2.36075001466426e-02 
2.74500000000000e+00 6.03655743248849e-02 2.28177688267296e-02 
2.77500000000000e+00 5.94032179456794e-02 2.20933077673966e-02 
2.80500000000000e+00 5.84844175210497e-02 2.14231015191936e-02 
2.83500000000000e+00 5.76004460334435e-02 2.07933327964579e-02 
2.86500000000000e+00 5.67483276033251e-02 2.01960134559422e-02 
2.89500000000000e+00 5.59254926243793e-02 1.96282273299698e-02 
2.92500000000000e+00 5.51328367688261e-02 1.90945959654873e-02 
2.95500000000000e+00 5.43707647834563e-02 1.86013312739857e-02 
2.98500000000000e+00 5.36361496129258e-02 1.81479510226317e-02 
3.01500000000000e+00 5.29265350688172e-02 1.77296676555751e-02 
3.04500000000000e+00 5.22385267932269e-02 1.73381269629245e-02 
3.07500000000000e+00 5.15693105353941e-02 1.69657321424685e-02 
3.10500000000000e+00 5.09188498301453e-02 1.66107903871442e-02 
3.13500000000000e+00 5.02865460375597e-02 1.62744513534095e-02 
3.16500000000000e+00 4.96723160663377e-02 1.59593418523560e-02 
3.19500000000000e+00 4.90754968605501e-02 1.56673332694524e-02 
3.22500000000000e+00 4.84939630168201e-02 1.53957570195805e-02 
3.25500000000000e+00 4.79265147598061e-02 1.51397660758579e-02 
3.28500000000000e+00 4.73718998789903e-02 1.48949057703267e-02 
3.31500000000000e+00 4.68294838608285e-02 1.46590633237895e-02 
3.34500000000000e+00 4.62990708262354e-02 1.44332266003060e-02 
3.37500000000000e+00 4.57802417917767e-02 1.42182071053915e-02 
3.40500000000000e+00 4.52725152204761e-02 1.40138657018329e-02 
3.43500000000000e+00 4.47752007368420e-02 1.38190318134662e-02 
3.46500000000000e+00 4.42874367203869e-02 1.36315301297409e-02 
3.49500000000000e+00 4.38088080979316e-02 1.34497838243828e-02 
3.52500000000000e+00 4.33390275535503e-02 1.32735066268376e-02 
3.55500000000000e+00 4.28779711413476e-02 1.31032929764294e-02 
3.58500000000000e+00 4.24254247438420e-02 1.29403326818234e-02 
3.61500000000000e+00 4.19811365544857e-02 1.27857252294398e-02 
3.64500000000000e+00 4.15446433527681e-02 1.26390094107185e-02 
3.67500000000000e+00 4.11156304238114e-02 1.24981764476006e-02 
3.70500000000000e+00 4.06938362133759e-02 1.23621099436742e-02 
3.73500000000000e+00 4.02790975952646e-02 1.22309215889106e-02 
3.76500000000000e+00 3.98712103899591e-02 1.21047062336535e-02 
3.79500000000000e+00 3.94699749130712e-02 1.19830539371887e-02 
3.82500000000000e+00 3.90750380854733e-02 1.18654002997518e-02 
3.85500000000000e+00 3.86860749881023e-02 1.17512359392506e-02 
3.88500000000000e+00 3.83028707560738e-02 1.16400561281261e-02 
3.91500000000000e+00 3.79252200911357e-02 1.15317959345003e-02 
3.94500000000000e+00 3.75532093984235e-02 1.14268131236432e-02 
3.97500000000000e+00 3.71866696530061e-02 1.13253739705058e-02 
4.00500000000000e+00 3.68255769832325e-02 1.12274034855924e-02 
4.03500000000000e+00 3.64690777944825e-02 1.11328213762747e-02 
4.06500000000000e+00 3.61166568039082e-02 1.10413431888605e-02 
4.09500000000000e+00 3.57683216615440e-02 1.09527433920357e-02 
4.12500000000000e+00 3.54239123151616e-02 1.08669582070852e-02 
4.15500000000000e+00 3.50832461800246e-02 1.07838378037567e-02 
4.18500000000000e+00 3.47462141203889e-02 1.07031506576750e-02 
4.21500000000000e+00 3.44126970478064e-02 1.06247863322805e-02 
4.24500000000000e+00 3.40826774061882e-02 1.05486977905005e-02 
4.27500000000000e+00 3.37560361424252e-02 1.04748461644239e-02 
4.30500000000000e+00 3.34326772293011e-02 1.04032110540352e-02 
4.33500000000000e+00 3.31125221391435e-02 1.03337589079202e-02 
4.36500000000000e+00 3.27954891971876e-02 1.02663813800164e-02 
4.39500000000000e+00 3.24814924049722e-02 1.02009089133952e-02 
4.42500000000000e+00 3.21704286953093e-02 1.01371806015118e-02 
4.45500000000000e+00 3.18622380517580e-02 1.00750724240431e-02 
4.48500000000000e+00 3.15568830143597e-02 1.00144966605654e-02 
4.51500000000000e+00 3.12542981023336e-02 9.95523429293871e-03 
4.54500000000000e+00 3.09544920980140e-02 9.89694513453782e-03 
4.57500000000000e+00 3.06575958976894e-02 9.83949074613606e-03 
4.60500000000000e+00 3.03635626011973e-02 9.78287611977567e-03 
4.63500000000000e+00 3.00723382080779e-02 9.72700771061033e-03 
4.66500000000000e+00 2.97838899547308e-02 9.67177192514236e-03 
4.69500000000000e+00 2.94981814438260e-02 9.61709571309404e-03 
4.72500000000000e+00 2.92151666138056e-02 9.56294983045047e-03 
4.75500000000000e+00 2.89347890055158e-02 9.50946533928402e-03 
4.78500000000000e+00 2.86570082060540e-02 9.45694969067471e-03 
4.81500000000000e+00 2.83817746591863e-02 9.40562136329336e-03 
4.84500000000000e+00 2.81090777196661e-02 9.35552526754914e-03 
4.87500000000000e+00 2.78388853258089e-02 9.30666607790303e-03 
4.90500000000000e+00 2.75711460950541e-02 9.25891703806115e-03 
4.93500000000000e+00 2.73057937604132e-02 9.21198713968236e-03 
4.96500000000000e+00 2.70427879887329e-02 9.16564951013913e-03 
4.99500000000000e+00 2.67821025674964e-02 9.11983601255334e-03 
5.02500000000000e+00 2.65236141411210e-02 9.07453761473937e-03 
5.05500000000000e+00 2.62671047731128e-02 9.02985074450642e-03 
5.08500000000000e+00 2.60125202560007e-02 8.98591307448682e-03 
5.11500000000000e+00 2.57598083670879e-02 8.94261971859425e-03 
5.14500000000000e+00 2.55089176503831e-02 8.89969912159642e-03 
5.17500000000000e+00 2.52598432660508e-02 8.85703720539758e-03 
5.20500000000000e+00 2.50125989528214e-02 8.81461737372840e-03 
5.23500000000000e+00 2.47671550080173e-02 8.77241128750713e-03 
5.26500000000000e+00 2.45234900130191e-02 8.73040003063005e-03 
5.29500000000000e+00 2.42815924382371e-02 8.68857802983455e-03 
5.32500000000000e+00 2.40414423011474e-02 8.64694407618378e-03 
5.35500000000000e+00 2.38030089464492e-02 8.60549835856614e-03 
5.38500000000000e+00 2.35662800679791e-02 8.56423552178560e-03 
5.41500000000000e+00 2.33312436613227e-02 8.52314623533217e-03 
5.44500000000000e+00 2.30978886024843e-02 8.48222966981309e-03 
5.47500000000000e+00 2.28662030774645e-02 8.44150720106529e-03 
5.50500000000000e+00 2.26361748425251e-02 8.40098502454335e-03 
5.53500000000000e+00 2.24078190072047e-02 8.36062749860836e-03 
5.56500000000000e+00 2.21811387702580e-02 8.32040602790663e-03 
5.59500000000000e+00 2.19561235556412e-02 8.28032126740354e-03 
5.62500000000000e+00 2.17327582435154e-02 8.24038793323440e-03 
5.65500000000000e+00 2.15110235110134e-02 8.20062605692866e-03 
5.68500000000000e+00 2.12909082148481e-02 8.16104968183833e-03 
5.71500000000000e+00 2.10724009297017e-02 8.12165447894300e-03 
5.74500000000000e+00 2.08555037523795e-02 8.08241829646038e-03 
5.77500000000000e+00 2.06402063181410e-02 8.04333098437618e-03 
5.80500000000000e+00 2.04264984821402e-02 8.00439317663036e-03 
5.83500000000000e+00 2.02143620760677e-02 7.96560898654737e-03 
5.86500000000000e+00 2.00037829783219e-02 7.92699779655009e-03 
5.89500000000000e+00 1.97947483563297e-02 7.88858318738014e-03 
5.92500000000000e+00 1.95872084655697e-02 7.85038255901411e-03 
5.95500000000000e+00 1.93810935060198e-02 7.81240950937172e-03 
5.98500000000000e+00 1.91763927699023e-02 7.77466441912718e-03 
6.01500000000000e+00 1.89730956056523e-02 7.73704538844808e-03 
6.04500000000000e+00 1.87708811695406e-02 7.69938161064520e-03 
6.07500000000000e+00 1.85697188346946e-02 7.66153975692472e-03 
6.10500000000000e+00 1.83696116757238e-02 7.62351892216611e-03 
6.13500000000000e+00 1.81705939719014e-02 7.58534187758809e-03 
6.16500000000000e+00 1.79726836526958e-02 7.54703085404422e-03 
6.19500000000000e+00 1.77758827373628e-02 7.50859220544164e-03 
6.22500000000000e+00 1.75801932645152e-02 7.47001822678679e-03 
6.25500000000000e+00 1.73856179937937e-02 7.43130497790005e-03 
6.28500000000000e+00 1.71921590274714e-02 7.39246332004175e-03 
6.31500000000000e+00 1.69998179460762e-02 7.35350860289587e-03 
6.34500000000000e+00 1.68085961069120e-02 7.31444670425034e-03 
6.37500000000000e+00 1.66184948639044e-02 7.27527358489790e-03 
6.40500000000000e+00 1.64295157632131e-02 7.23596970373356e-03 
6.43500000000000e+00 1.62416622544504e-02 7.19650350267598e-03 
6.46500000000000e+00 1.60549380126468e-02 7.15686501139312e-03 
6.49500000000000e+00 1.58693459455469e-02 7.11706927576115e-03 
6.52500000000000e+00 1.56848883757293e-02 7.07714064404079e-03 
6.55500000000000e+00 1.55015667527183e-02 7.03710165607340e-03 
6.58500000000000e+00 1.53193823749508e-02 6.99696372935541e-03 
6.61500000000000e+00 1.51383363594150e-02 6.95672573262711e-03 
6.64500000000000e+00 1.49584439705733e-02 6.91637926713562e-03 
6.67500000000000e+00 1.47797065056587e-02 6.87593052990365e-03 
6.70500000000000e+00 1.46021248850604e-02 6.83539785973266e-03 
6.73500000000000e+00 1.44256992722169e-02 6.79480805296965e-03 
6.76500000000000e+00 1.42504291344955e-02 6.75418552888277e-03 
6.79500000000000e+00 1.40763136133180e-02 6.71354488346573e-03 
6.82500000000000e+00 1.39033502376409e-02 6.67289545750768e-03 
6.85500000000000e+00 1.37315351835111e-02 6.63223873224407e-03 
6.88500000000000e+00 1.35608671569941e-02 6.59157192689547e-03 
6.91500000000000e+00 1.33913449725504e-02 6.55089365918769e-03 
6.94500000000000e+00 1.32229158639826e-02 6.51021013947412e-03 
6.97500000000000e+00 1.30555793472628e-02 6.46951850253170e-03 
7.00500000000000e+00 1.28893348414045e-02 6.42880000581529e-03 
7.03500000000000e+00 1.27241512666813e-02 6.38800776861361e-03 
7.06500000000000e+00 1.25600163480413e-02 6.34710552023272e-03 
7.09500000000000e+00 1.23969329677319e-02 6.30599967840228e-03 
7.12500000000000e+00 1.22348465838038e-02 6.26435407538575e-03 
7.15500000000000e+00 1.20736556285167e-02 6.22177815585333e-03 
7.18500000000000e+00 1.19133905843300e-02 6.17813910476057e-03 
7.21500000000000e+00 1.17540807681485e-02 6.13348759496874e-03 
7.24500000000000e+00 1.15957539146632e-02 6.08786928016797e-03 
7.27500000000000e+00 1.14384372788343e-02 6.04131936739948e-03 
7.30500000000000e+00 1.12821573154019e-02 5.99386766139296e-03 
7.33500000000000e+00 1.11269402021392e-02 5.94554085283911e-03 
7.36500000000000e+00 1.09728113941091e-02 5.89636996076528e-03 
7.39500000000000e+00 1.08197952502378e-02 5.84641571137910e-03 
7.42500000000000e+00 1.06679236982294e-02 5.79580045780891e-03 
7.45500000000000e+00 1.05172337661441e-02 5.74465894600647e-03 
7.48500000000000e+00 1.03677401677700e-02 5.69306342922879e-03 
7.51500000000000e+00 1.02194569106507e-02 5.64104079731301e-03 
7.54500000000000e+00 1.00723974951327e-02 5.58861646686872e-03 
7.57500000000000e+00 9.92657465250785e-03 5.53581878008064e-03 
7.60500000000000e+00 9.78200037464455e-03 5.48267724422091e-03 
7.63500000000000e+00 9.63868594988563e-03 5.42921954616649e-03 
7.66500000000000e+00 9.49664193630440e-03 5.37547238937261e-03 
7.69500000000000e+00 9.35587826783174e-03 5.32146243882580e-03 
7.72500000000000e+00 9.21641273947131e-03 5.26721299097129e-03 
7.75500000000000e+00 9.07827077585361e-03 5.21273899856339e-03 
7.78500000000000e+00 8.94146024586881e-03 5.15805715179779e-03 
7.81500000000000e+00 8.80598862171888e-03 5.10319108095396e-03 
7.84500000000000e+00 8.67185370612883e-03 5.04817218291619e-03 
7.87500000000000e+00 8.53906150166680e-03 4.99302213865688e-03 
7.90500000000000e+00 8.40761765836811e-03 4.93775669632056e-03 
7.93500000000000e+00 8.27749063167753e-03 4.88239851619221e-03 
7.96500000000000e+00 8.14866802975889e-03 4.82695880791174e-03 
7.99500000000000e+00 8.02115558650823e-03 4.77148995032034e-03 
8.02500000000000e+00 7.89497380898352e-03 4.71613249825088e-03 
8.05500000000000e+00 7.77017319247778e-03 4.66098500567243e-03 
8.08500000000000e+00 7.64672641971791e-03 4.60605509005658e-03 
8.11500000000000e+00 7.52463096668085e-03 4.55132806387131e-03 
8.14500000000000e+00 7.40390545584585e-03 4.49681752585199e-03 
8.17500000000000e+00 7.28454549226135e-03 4.44254198260807e-03 
8.20500000000000e+00 7.16654424663012e-03 4.38851532813796e-03 
8.23500000000000e+00 7.04989233183947e-03 4.33475273662994e-03 
8.26500000000000e+00 6.93458241321826e-03 4.28126610625137e-03 
8.29500000000000e+00 6.82060923736067e-03 4.22806220975861e-03 
8.32500000000000e+00 6.70795163638260e-03 4.17514840794931e-03 
8.35500000000000e+00 6.59657324740771e-03 4.12253632931644e-03 
8.38500000000000e+00 6.48646830269016e-03 4.07023050107706e-03 
8.41500000000000e+00 6.37763186180579e-03 4.01820111675170e-03 
8.44500000000000e+00 6.27006337769888e-03 3.96638124368348e-03 
8.47500000000000e+00 6.16376134564378e-03 3.91474671694117e-03 
8.50500000000000e+00 6.05872387474640e-03 3.86329098546344e-03 
8.53500000000000e+00 5.95493372395253e-03 3.81198491150450e-03 
8.56500000000000e+00 5.85237717861200e-03 3.76080923427610e-03 
8.59500000000000e+00 5.75105463066979e-03 3.70975999869816e-03 
8.62500000000000e+00 5.65097735538470e-03 3.65881064180731e-03 
8.65500000000000e+00 5.55216784392269e-03 3.60792230921153e-03 
8.68500000000000e+00 5.45462786986378e-03 3.55709600285464e-03 
8.71500000000000e+00 5.35835868615278e-03 3.50635049788912e-03 
8.74500000000000e+00 5.26336105754133e-03 3.45570401417582e-03 
8.77500000000000e+00 5.16963524131219e-03 3.40517381770336e-03 
8.80500000000000e+00 5.07718101242832e-03 3.35477992001809e-03 
8.83500000000000e+00 4.98599730260148e-03 3.30454654134709e-03 
8.86500000000000e+00 4.89608247750396e-03 3.25449498916894e-03 
8.89500000000000e+00 4.80743447497051e-03 3.20464057259476e-03 
8.92500000000000e+00 4.72004880016349e-03 3.15499632765127e-03 
8.95500000000000e+00 4.63391870931357e-03 3.10557476948926e-03 
8.98500000000000e+00 4.54904126550786e-03 3.05638691209388e-03 
9.01500000000000e+00 4.46541316977397e-03 3.00748428444147e-03 
9.04500000000000e+00 4.38310940743125e-03 2.95891078575712e-03 
9.07500000000000e+00 4.30212029403300e-03 2.91071550140096e-03 
9.10500000000000e+00 4.22243595681878e-03 2.86290386460596e-03 
9.13500000000000e+00 4.14403963515669e-03 2.81548402629069e-03 
9.16500000000000e+00 4.06691801612658e-03 2.76846150220778e-03 
9.19500000000000e+00 3.99106104264214e-03 2.72185120048277e-03 
9.22500000000000e+00 3.91645542812492e-03 2.67570172163775e-03 
9.25500000000000e+00 3.84308477020348e-03 2.63007054446945e-03 
9.28500000000000e+00 3.77093527503569e-03 2.58497792111778e-03 
9.31500000000000e+00 3.69999321156462e-03 2.54042223806602e-03 
