Energy(eV)           EEDF(eV^-(3/2))      Anisotropy(eV^-(3/2))
7.23379629629630e-03 2.17053339734754e-01 -2.15844617364561e-03 
2.17013888888889e-02 2.17079597166479e-01 -9.69960310037628e-04 
3.61689814814815e-02 2.17102803800966e-01 -3.19744116964774e-04 
5.06365740740741e-02 2.17123784221177e-01 2.90370950695966e-05 
6.51041666666667e-02 2.17142589853387e-01 2.84932164594715e-04 
7.95717592592593e-02 2.17158916037381e-01 4.96889739834476e-04 
9.40393518518519e-02 2.17172756024985e-01 6.90465502292957e-04 
1.08506944444444e-01 2.17183961104487e-01 8.71078738180112e-04 
1.22974537037037e-01 2.17192457747965e-01 1.04705761984621e-03 
1.37442129629630e-01 2.17198025502202e-01 1.75700251857511e-03 
1.51909722222222e-01 2.17186276537936e-01 2.97846004826907e-03 
1.66377314814815e-01 2.17155331926050e-01 3.65341082406593e-03 
1.80844907407407e-01 2.17119582836930e-01 3.84677658930138e-03 
1.95312500000000e-01 2.17077495030695e-01 4.22141070485830e-03 
2.09780092592593e-01 2.17024312651609e-01 4.61167588578927e-03 
2.24247685185185e-01 2.16963840609873e-01 4.76099992030364e-03 
2.38715277777778e-01 2.16900183940581e-01 4.80257553230575e-03 
2.53182870370370e-01 2.16832726156667e-01 6.13673345045330e-03 
2.67650462962963e-01 2.16714376213042e-01 9.13312165058213e-03 
2.82118055555556e-01 2.16526000911314e-01 1.12282674423206e-02 
2.96585648148148e-01 2.16315064469511e-01 1.15483947716720e-02 
3.11053240740741e-01 2.16101167295543e-01 1.18374548661811e-02 
3.25520833333333e-01 2.15866804592377e-01 1.23654916554529e-02 
3.39988425925926e-01 2.15602271024435e-01 1.22345195672481e-02 
3.54456018518519e-01 2.15359764408778e-01 1.18790695288946e-02 
3.68923611111111e-01 2.15117433797507e-01 1.25415406101720e-02 
3.83391203703704e-01 2.14837258692563e-01 1.49189018382532e-02 
3.97858796296296e-01 2.14474889623006e-01 1.74313338375637e-02 
4.12326388888889e-01 2.14064872650677e-01 1.85533638312999e-02 
4.26793981481482e-01 2.13636680627075e-01 1.93618598328223e-02 
4.41261574074074e-01 2.13175863220333e-01 1.93359713277539e-02 
4.55729166666667e-01 2.12647610415449e-01 1.78273737471641e-02 
4.70196759259259e-01 2.12221573222168e-01 1.63980381236767e-02 
4.84664351851852e-01 2.11837643568813e-01 1.60777645582102e-02 
4.99131944444445e-01 2.11448347872895e-01 1.71683297923887e-02 
5.13599537037037e-01 2.10999622208193e-01 1.93717510068098e-02 
5.28067129629630e-01 2.10490493997359e-01 2.09650689504320e-02 
5.42534722222222e-01 2.09954147756172e-01 2.19180142501704e-02 
5.57002314814815e-01 2.09389847673813e-01 2.18935739451948e-02 
5.71469907407407e-01 2.08775013486890e-01 2.01808610828459e-02 
5.85937500000000e-01 2.08209753000683e-01 1.83343305867898e-02 
6.00405092592593e-01 2.07763366418347e-01 1.80805064075009e-02 
6.14872685185185e-01 2.07295327910584e-01 1.94100408762208e-02 
6.29340277777778e-01 2.06792867619586e-01 2.06595020377634e-02 
6.43807870370370e-01 2.06281093266771e-01 2.12659726165575e-02 
6.58275462962963e-01 2.05769564506600e-01 2.18080216268662e-02 
6.72743055555556e-01 2.05253121401867e-01 2.22615455400735e-02 
6.87210648148148e-01 2.04742277070268e-01 2.13065585482992e-02 
7.01678240740741e-01 2.04156416582837e-01 1.95506541303176e-02 
7.16145833333333e-01 2.03745217241491e-01 1.88112344179121e-02 
7.30613425925926e-01 2.03325841703241e-01 1.97548566327337e-02 
7.45081018518519e-01 2.02883467099458e-01 2.04217953501979e-02 
7.59548611111111e-01 2.02437341436806e-01 2.07180166137893e-02 
7.74016203703704e-01 2.01985201695635e-01 2.10821317891586e-02 
7.88483796296296e-01 2.01526362832844e-01 2.07569376967730e-02 
8.02951388888889e-01 2.01019598834047e-01 1.93601510268223e-02 
8.17418981481482e-01 2.00556211319798e-01 1.80364330948647e-02 
8.31886574074074e-01 2.00146382765805e-01 1.78290174402674e-02 
8.46354166666667e-01 1.99705722179256e-01 1.83159267175778e-02 
8.60821759259259e-01 1.99229011727838e-01 1.87907732984184e-02 
8.75289351851852e-01 1.98719856316016e-01 1.90971270921078e-02 
8.89756944444445e-01 1.98182000787285e-01 1.92643037631689e-02 
9.04224537037037e-01 1.97618493441434e-01 1.87494183321031e-02 
9.18692129629630e-01 1.97006287896462e-01 1.76318275720190e-02 
9.33159722222222e-01 1.96486329639961e-01 1.68951481120118e-02 
9.47627314814815e-01 1.95979979621011e-01 1.69655070754533e-02 
9.62094907407408e-01 1.95460542177860e-01 1.72500345372353e-02 
9.76562500000000e-01 1.94926427563419e-01 1.75038273311621e-02 
9.91030092592593e-01 1.94380856908169e-01 1.76758916461567e-02 
1.00549768518519e+00 1.93825573521361e-01 1.78022976419842e-02 
1.01996527777778e+00 1.93262542489562e-01 1.76555745215304e-02 
1.03443287037037e+00 1.92678051505195e-01 1.71315602323378e-02 
1.04890046296296e+00 1.92125164106825e-01 1.67334750901958e-02 
1.06336805555556e+00 1.91589218672523e-01 1.67674194402463e-02 
1.07783564814815e+00 1.91043171395040e-01 1.69348382545282e-02 
1.09230324074074e+00 1.90488331410046e-01 1.70688169624811e-02 
1.10677083333333e+00 1.89925495846786e-01 1.71832187572465e-02 
1.12123842592593e+00 1.89355073298138e-01 1.72904331604130e-02 
1.13570601851852e+00 1.88777039218659e-01 1.72449958324494e-02 
1.15017361111111e+00 1.88183435860262e-01 1.70391170752347e-02 
1.16464120370370e+00 1.87609244743651e-01 1.69757204222992e-02 
1.17910879629630e+00 1.87030463951048e-01 1.70936573212916e-02 
1.19357638888889e+00 1.86442972414006e-01 1.72200301715061e-02 
1.20804398148148e+00 1.85847646260795e-01 1.73333149674467e-02 
1.22251157407407e+00 1.85248245774424e-01 1.74434667099740e-02 
1.23697916666667e+00 1.84644809931506e-01 1.74903644642669e-02 
1.25144675925926e+00 1.84033907520139e-01 1.74727247908649e-02 
1.26591435185185e+00 1.83430771721584e-01 1.75183259407762e-02 
1.28038194444444e+00 1.82824199421398e-01 1.76319064643389e-02 
1.29484953703704e+00 1.82213361231447e-01 1.77437489487200e-02 
1.30931712962963e+00 1.81598793965442e-01 1.78510848677531e-02 
1.32378472222222e+00 1.80982003126808e-01 1.79592615811654e-02 
1.33825231481481e+00 1.80362928229080e-01 1.80530618191845e-02 
1.35271990740741e+00 1.79740442477616e-01 1.81180665433626e-02 
1.36718750000000e+00 1.79117904754937e-01 1.81884383803621e-02 
1.38165509259259e+00 1.78495910086527e-01 1.82928422641224e-02 
1.39612268518519e+00 1.77871334835346e-01 1.84129253663736e-02 
1.41059027777778e+00 1.77244183016886e-01 1.85327827543523e-02 
1.42505787037037e+00 1.76614523395981e-01 1.86505990003185e-02 
1.43952546296296e+00 1.75982482789471e-01 1.87569638289862e-02 
1.45399305555556e+00 1.75347551620019e-01 1.88466434322979e-02 
1.46846064814815e+00 1.74711847803920e-01 1.89369445495546e-02 
1.48292824074074e+00 1.74075263640967e-01 1.90382219491449e-02 
1.49739583333333e+00 1.73436764149513e-01 1.91417924401560e-02 
1.51186342592593e+00 1.72796463586256e-01 1.92430296750241e-02 
1.52633101851852e+00 1.72154436927940e-01 1.93427344934796e-02 
1.54079861111111e+00 1.71510745177905e-01 1.94369456547244e-02 
1.55526620370370e+00 1.70865086977330e-01 1.95236651914567e-02 
1.56973379629630e+00 1.70218647727941e-01 1.96116164037093e-02 
1.58420138888889e+00 1.69571149619221e-01 1.97047575287007e-02 
1.59866898148148e+00 1.68922207386365e-01 1.97987659252404e-02 
1.61313657407407e+00 1.68271878356009e-01 1.98916566243671e-02 
1.62760416666667e+00 1.67620220944678e-01 1.99829284856084e-02 
1.64207175925926e+00 1.66967240847588e-01 2.00706178014496e-02 
1.65653935185185e+00 1.66312963049988e-01 2.01550463823548e-02 
1.67100694444444e+00 1.65657893986470e-01 2.02401233493739e-02 
1.68547453703704e+00 1.65001850125879e-01 2.03265877925831e-02 
1.69994212962963e+00 1.64344744034152e-01 2.04124298123078e-02 
1.71440972222222e+00 1.63686928828150e-01 2.04968748853663e-02 
1.72887731481482e+00 1.63028772355989e-01 2.05798013562819e-02 
1.74334490740741e+00 1.62370345856753e-01 2.06611798917198e-02 
1.75781250000000e+00 1.61711719168960e-01 2.07410288601071e-02 
1.77228009259259e+00 1.61052961020040e-01 2.08193698572711e-02 
1.78674768518519e+00 1.60394138743959e-01 2.08962259759677e-02 
1.80121527777778e+00 1.59735318511458e-01 2.09715255278997e-02 
1.81568287037037e+00 1.59076572533246e-01 2.10450311404771e-02 
1.83015046296296e+00 1.58417982022034e-01 2.11165305146889e-02 
1.84461805555556e+00 1.57759629412856e-01 2.11860028094962e-02 
1.85908564814815e+00 1.57101594843796e-01 2.12535090048570e-02 
1.87355324074074e+00 1.56443956144106e-01 2.13190909457042e-02 
1.88802083333333e+00 1.55786789410690e-01 2.13827841889340e-02 
1.90248842592593e+00 1.55130168862411e-01 2.14446481934740e-02 
1.91695601851852e+00 1.54473749869615e-01 2.15046975484959e-02 
1.93142361111111e+00 1.53817397416067e-01 2.15629372083534e-02 
1.94589120370370e+00 1.53161178240581e-01 2.16193926424915e-02 
1.96035879629630e+00 1.52505157643396e-01 2.16740714911317e-02 
1.97482638888889e+00 1.51849397137353e-01 2.17269425097194e-02 
1.98929398148148e+00 1.51193959520151e-01 2.17779818619146e-02 
2.00376157407407e+00 1.50538910538536e-01 2.18272086054593e-02 
2.01822916666667e+00 1.49884314865140e-01 2.18746481721958e-02 
2.03269675925926e+00 1.49230235907682e-01 2.19203110350070e-02 
2.04716435185185e+00 1.48576736126509e-01 2.19642170584898e-02 
2.06163194444444e+00 1.47923876567887e-01 2.20063946319993e-02 
2.07609953703704e+00 1.47271717020971e-01 2.20468717310429e-02 
2.09056712962963e+00 1.46620315906321e-01 2.20856800227051e-02 
2.10503472222222e+00 1.45969730185444e-01 2.21228580864581e-02 
2.11950231481481e+00 1.45319448957070e-01 2.21583671983224e-02 
2.13396990740741e+00 1.44669426150217e-01 2.21921832551532e-02 
2.14843750000000e+00 1.44019716322003e-01 2.22243297546358e-02 
2.16290509259259e+00 1.43370372858947e-01 2.22548339692883e-02 
2.17737268518519e+00 1.42721448091060e-01 2.22837169776393e-02 
2.19184027777778e+00 1.42072993600616e-01 2.23109850067021e-02 
2.20630787037037e+00 1.41425060772497e-01 2.23365873192785e-02 
2.22077546296296e+00 1.40777631835944e-01 2.23604206834464e-02 
2.23524305555556e+00 1.40130758911051e-01 2.23824252141382e-02 
2.24971064814815e+00 1.39484499546673e-01 2.24025824914838e-02 
2.26417824074074e+00 1.38838910819503e-01 2.24208921000804e-02 
2.27864583333333e+00 1.38194048905099e-01 2.24373807116265e-02 
2.29311342592593e+00 1.37549968686620e-01 2.24520824665190e-02 
2.30758101851852e+00 1.36906724541572e-01 2.24650204160972e-02 
2.32204861111111e+00 1.36264402767833e-01 2.24762126498095e-02 
2.33651620370370e+00 1.35623055323126e-01 2.24856875533978e-02 
2.35098379629630e+00 1.34982732894025e-01 2.24934755661158e-02 
2.36545138888889e+00 1.34343485070490e-01 2.24996032822953e-02 
2.37991898148148e+00 1.33705360408115e-01 2.25041011734406e-02 
2.39438657407407e+00 1.33068406137847e-01 2.25069984367365e-02 
2.40885416666667e+00 1.32432827254820e-01 2.25082601258975e-02 
2.42332175925926e+00 1.31799930803574e-01 2.25079074282372e-02 
2.43778935185185e+00 1.31169761421072e-01 2.25060157288627e-02 
2.45225694444444e+00 1.30542362459816e-01 2.25026094932431e-02 
2.46672453703704e+00 1.29917776047779e-01 2.24977118479501e-02 
2.48119212962963e+00 1.29296043127778e-01 2.24913471141595e-02 
2.49565972222222e+00 1.28677203373348e-01 2.24835540240223e-02 
2.51012731481482e+00 1.28060994873355e-01 2.24744042409304e-02 
2.52459490740741e+00 1.27446254598397e-01 2.24638935775560e-02 
2.53906250000000e+00 1.26833021168272e-01 2.24519746513906e-02 
2.55353009259259e+00 1.26221332206179e-01 2.24386732385136e-02 
2.56799768518519e+00 1.25611224437921e-01 2.24240131472100e-02 
2.58246527777778e+00 1.25002733707949e-01 2.24080256789087e-02 
2.59693287037037e+00 1.24395894537158e-01 2.23907489788307e-02 
2.61140046296296e+00 1.23790770867316e-01 2.23722087649406e-02 
2.62586805555556e+00 1.23187471005774e-01 2.23524274259672e-02 
2.64033564814815e+00 1.22586026394365e-01 2.23314326985689e-02 
2.65480324074074e+00 1.21986467643999e-01 2.23092462972143e-02 
2.66927083333333e+00 1.21388824574853e-01 2.22858892367800e-02 
2.68373842592593e+00 1.20793126224691e-01 2.22613835437422e-02 
2.69820601851852e+00 1.20199400795497e-01 2.22357593010065e-02 
2.71267361111111e+00 1.19607675475166e-01 2.22090654865171e-02 
2.72714120370370e+00 1.19017975733974e-01 2.21813549160577e-02 
2.74160879629630e+00 1.18430325323865e-01 2.21526594142748e-02 
2.75607638888889e+00 1.17844747309366e-01 2.21229966273563e-02 
2.77054398148148e+00 1.17261264139457e-01 2.20923830040123e-02 
2.78501157407407e+00 1.16679897658750e-01 2.20608285955053e-02 
2.79947916666667e+00 1.16100669457448e-01 2.20283427785234e-02 
2.81394675925926e+00 1.15523284810447e-01 2.19949414965098e-02 
2.82841435185185e+00 1.14947401321491e-01 2.19606046476858e-02 
2.84288194444444e+00 1.14373044791139e-01 2.19252719183222e-02 
2.85734953703704e+00 1.13800240843114e-01 2.18888993902530e-02 
2.87181712962963e+00 1.13229015553871e-01 2.18514818377227e-02 
2.88628472222222e+00 1.12659394380537e-01 2.18130358319850e-02 
2.90075231481482e+00 1.12091402347120e-01 2.17735747653827e-02 
2.91521990740741e+00 1.11525071685626e-01 2.17331168360161e-02 
2.92968750000000e+00 1.10960432442976e-01 2.16916845378143e-02 
2.94415509259259e+00 1.10397507767197e-01 2.16492983745133e-02 
2.95862268518519e+00 1.09836320223474e-01 2.16059756557082e-02 
2.97309027777778e+00 1.09276891876653e-01 2.15617328350948e-02 
2.98755787037037e+00 1.08719244250444e-01 2.15165917739696e-02 
3.00202546296296e+00 1.08163398087491e-01 2.14705824255364e-02 
3.01649305555556e+00 1.07609353004544e-01 2.14237322163316e-02 
3.03096064814815e+00 1.07057116802784e-01 2.13760854477372e-02 
3.04542824074074e+00 1.06506703994938e-01 2.13277357358243e-02 
3.05989583333333e+00 1.05958128870306e-01 2.12787723116310e-02 
3.07436342592593e+00 1.05411404091535e-01 2.12292302359026e-02 
3.08883101851852e+00 1.04866542018029e-01 2.11791175131708e-02 
3.10329861111111e+00 1.04323554802240e-01 2.11284441516046e-02 
3.11776620370370e+00 1.03782446421168e-01 2.10772272593200e-02 
3.13223379629630e+00 1.03243225198979e-01 2.10254832807020e-02 
3.14670138888889e+00 1.02705901959567e-01 2.09732248940620e-02 
3.16116898148148e+00 1.02170487177295e-01 2.09204636098663e-02 
3.17563657407407e+00 1.01636990992338e-01 2.08672121583793e-02 
3.19010416666667e+00 1.01105423115321e-01 2.08134898266686e-02 
3.20457175925926e+00 1.00575792595768e-01 2.07593184972500e-02 
3.21903935185185e+00 1.00048667479714e-01 2.07047186927143e-02 
3.23350694444444e+00 9.95241778802132e-02 2.06497283266900e-02 
3.24797453703704e+00 9.90023300433650e-02 2.05942902111540e-02 
3.26244212962963e+00 9.84831300208277e-02 2.05383535253185e-02 
3.27690972222222e+00 9.79665842211745e-02 2.04819141737321e-02 
3.29137731481482e+00 9.74526987340247e-02 2.04249792268347e-02 
3.30584490740741e+00 9.69414794260547e-02 2.03675895427159e-02 
3.32031250000000e+00 9.64319459696482e-02 2.03098212310558e-02 
3.33478009259259e+00 9.59240041705367e-02 2.02516154078787e-02 
3.34924768518519e+00 9.54176644667507e-02 2.01929749232585e-02 
3.36371527777778e+00 9.49129370109553e-02 2.01339104351373e-02 
3.37818287037037e+00 9.44098316797554e-02 2.00744312198788e-02 
3.39265046296296e+00 9.39083581467337e-02 2.00145435796119e-02 
3.40711805555556e+00 9.34085259517030e-02 1.99542572511743e-02 
3.42158564814815e+00 9.29102823710076e-02 1.98935961768688e-02 
3.43605324074074e+00 9.24136350143200e-02 1.98325994753135e-02 
3.45052083333333e+00 9.19185901234062e-02 1.97713288431345e-02 
3.46498842592593e+00 9.14251534255534e-02 1.97098230747921e-02 
3.47945601851852e+00 9.09333302968587e-02 1.96480909030293e-02 
3.49392361111111e+00 9.04431260271708e-02 1.95861347725677e-02 
3.50839120370370e+00 8.99545450974071e-02 1.95239567361055e-02 
3.52285879629630e+00 8.94675839011238e-02 1.94615602162136e-02 
3.53732638888889e+00 8.89822475904224e-02 1.93989495582761e-02 
3.55179398148148e+00 8.84985411430234e-02 1.93361313118983e-02 
3.56626157407407e+00 8.80164693738458e-02 1.92731117554326e-02 
3.58072916666667e+00 8.75360369365367e-02 1.92099001670615e-02 
3.59519675925926e+00 8.70572481466065e-02 1.91465115887916e-02 
3.60966435185185e+00 8.65801036437405e-02 1.90829634216281e-02 
3.62413194444445e+00 8.61045908834127e-02 1.90192887575034e-02 
3.63859953703704e+00 8.56307132543703e-02 1.89555296164864e-02 
3.65306712962963e+00 8.51584728862419e-02 1.88917033782923e-02 
3.66753472222222e+00 8.46878712546566e-02 1.88278103307383e-02 
3.68200231481482e+00 8.42189097333498e-02 1.87638529617168e-02 
3.69646990740741e+00 8.37515896813581e-02 1.86998330533995e-02 
3.71093750000000e+00 8.32858297219790e-02 1.86357618644547e-02 
3.72540509259259e+00 8.28213920657132e-02 1.85716439714869e-02 
3.73987268518519e+00 8.23582804716079e-02 1.85074421547863e-02 
3.75434027777778e+00 8.18964992689817e-02 1.84431424033269e-02 
3.76880787037037e+00 8.14360529369586e-02 1.83787443259992e-02 
3.78327546296296e+00 8.09769458338934e-02 1.83142529024957e-02 
3.79774305555556e+00 8.05191821946874e-02 1.82496882983074e-02 
3.81221064814815e+00 8.00627850099121e-02 1.81851445333622e-02 
3.82667824074074e+00 7.96077908670848e-02 1.81207975658607e-02 
3.84114583333333e+00 7.91541924302952e-02 1.80568083807803e-02 
3.85561342592593e+00 7.87019802042057e-02 1.79932532747544e-02 
3.87008101851852e+00 7.82511441967311e-02 1.79301474014395e-02 
3.88454861111111e+00 7.78016745162378e-02 1.78674863210762e-02 
3.89901620370370e+00 7.73535613659260e-02 1.78052662232380e-02 
3.91348379629630e+00 7.69067751365253e-02 1.77434822628935e-02 
3.92795138888889e+00 7.64612804018906e-02 1.76821564014908e-02 
3.94241898148148e+00 7.60170666128726e-02 1.76213498285512e-02 
3.95688657407407e+00 7.55741213147481e-02 1.75611053649651e-02 
3.97135416666667e+00 7.51324317226887e-02 1.75014255458854e-02 
3.98582175925926e+00 7.46919852084337e-02 1.74423017498913e-02 
4.00028935185185e+00 7.42527693873003e-02 1.73836460677806e-02 
4.01475694444444e+00 7.38148923226761e-02 1.73252547856240e-02 
4.02922453703704e+00 7.33784578163243e-02 1.72670483737671e-02 
4.04369212962963e+00 7.29434617625966e-02 1.72091312700136e-02 
4.05815972222222e+00 7.25098954040582e-02 1.71515627778934e-02 
4.07262731481481e+00 7.20777501319544e-02 1.70943355991290e-02 
4.08709490740741e+00 7.16470174512224e-02 1.70374454689352e-02 
4.10156250000000e+00 7.12176889690483e-02 1.69809109553568e-02 
4.11603009259259e+00 7.07894304313614e-02 1.69247783529483e-02 
4.13049768518519e+00 7.03620255089579e-02 1.68689854432711e-02 
4.14496527777778e+00 6.99354710058090e-02 1.68134073722818e-02 
4.15943287037037e+00 6.95097663653356e-02 1.67579903136665e-02 
4.17390046296296e+00 6.90849111235255e-02 1.67027311324933e-02 
4.18836805555556e+00 6.86609045154978e-02 1.66476156902433e-02 
4.20283564814815e+00 6.82377428079277e-02 1.65926067720527e-02 
4.21730324074074e+00 6.78157869499665e-02 1.65376825291573e-02 
4.23177083333333e+00 6.73951911997583e-02 1.64828979669910e-02 
4.24623842592593e+00 6.69759508399419e-02 1.64282745206805e-02 
4.26070601851852e+00 6.65580621089758e-02 1.63738097983029e-02 
4.27517361111111e+00 6.61415210743325e-02 1.63195064027369e-02 
4.28964120370370e+00 6.57263238445290e-02 1.62653617869027e-02 
4.30410879629630e+00 6.53124666203218e-02 1.62113532127483e-02 
4.31857638888889e+00 6.48999543054065e-02 1.61574654445087e-02 
4.33304398148148e+00 6.44887859034457e-02 1.61037626096015e-02 
4.34751157407407e+00 6.40789553266374e-02 1.60503350304713e-02 
4.36197916666667e+00 6.36704548034700e-02 1.59972132053398e-02 
4.37644675925926e+00 6.32632766661593e-02 1.59443932235589e-02 
4.39091435185185e+00 6.28574133429572e-02 1.58918714444009e-02 
4.40538194444444e+00 6.24528573519195e-02 1.58395535444989e-02 
4.41984953703704e+00 6.20495878644318e-02 1.57872872736596e-02 
4.43431712962963e+00 6.16476026776709e-02 1.57350347482876e-02 
4.44878472222222e+00 6.12469008424376e-02 1.56828151886763e-02 
4.46325231481482e+00 6.08474819456136e-02 1.56306253989744e-02 
4.47771990740741e+00 6.04493455052362e-02 1.55784669690851e-02 
4.49218750000000e+00 6.00524910254716e-02 1.55263405069799e-02 
