Energy(eV)           EEDF(eV^-(3/2))      Anisotropy(eV^-(3/2))
1.25000000000000e-02 3.17978861969828e-01 6.62411176284642e-03 
3.75000000000000e-02 3.17825052376465e-01 4.92023348945855e-03 
6.25000000000000e-02 3.17586963883204e-01 8.39001291495960e-03 
8.75000000000000e-02 3.17288186714955e-01 1.08807527738267e-02 
1.12500000000000e-01 3.16957001069785e-01 1.23953572604044e-02 
1.37500000000000e-01 3.16611860448796e-01 1.34339148247750e-02 
1.62500000000000e-01 3.16244139501829e-01 1.42711929390543e-02 
1.87500000000000e-01 3.15871791938683e-01 1.48921750765964e-02 
2.12500000000000e-01 3.15492586716249e-01 1.53933185468929e-02 
2.37500000000000e-01 3.15101505730089e-01 1.58013126499589e-02 
2.62500000000000e-01 3.14701487522150e-01 1.67209389924232e-02 
2.87500000000000e-01 3.14268381952679e-01 1.80924223158565e-02 
3.12500000000000e-01 3.13809440231384e-01 1.86538533566377e-02 
3.37500000000000e-01 3.13346070607159e-01 1.84907684971784e-02 
3.62500000000000e-01 3.12889696021378e-01 1.82442740919207e-02 
3.87500000000000e-01 3.12434893279232e-01 1.85470741694116e-02 
4.12500000000000e-01 3.11952005415282e-01 1.96999938030443e-02 
4.37500000000000e-01 3.11426575502784e-01 2.02674945913826e-02 
4.62500000000000e-01 3.10871094670254e-01 1.98271107001216e-02 
4.87500000000000e-01 3.10357885368263e-01 1.96381974136532e-02 
5.12500000000000e-01 3.09831598013691e-01 2.02571599700709e-02 
5.37500000000000e-01 3.09277606445620e-01 2.13386179103089e-02 
5.62500000000000e-01 3.08689734316809e-01 2.19103651363676e-02 
5.87500000000000e-01 3.08063234116164e-01 2.19151351692591e-02 
6.12500000000000e-01 3.07471286528955e-01 2.27759301404779e-02 
6.37500000000000e-01 3.06838852767503e-01 2.45723042687646e-02 
6.62500000000000e-01 3.06160240908978e-01 2.62271162976959e-02 
6.87500000000000e-01 3.05450241523756e-01 2.73766901189325e-02 
7.12500000000000e-01 3.04689276417985e-01 2.83328366368362e-02 
7.37500000000000e-01 3.03931685964282e-01 2.98108182626260e-02 
7.62500000000000e-01 3.03122566527037e-01 3.17882896287616e-02 
7.87500000000000e-01 3.02255754166932e-01 3.35342048728258e-02 
8.12500000000000e-01 3.01289537941563e-01 3.49233942398816e-02 
8.37500000000000e-01 3.00319081873114e-01 3.69845601444415e-02 
8.62500000000000e-01 2.99251258009607e-01 3.96590217427285e-02 
8.87500000000000e-01 2.98076395397222e-01 4.24873522368930e-02 
9.12500000000000e-01 2.96787573034281e-01 4.53677077383891e-02 
9.37500000000000e-01 2.95387244306052e-01 4.83272718101192e-02 
9.62500000000000e-01 2.93897573392776e-01 5.15684359251825e-02 
9.87500000000000e-01 2.92291989112345e-01 5.50337328847412e-02 
1.01250000000000e+00 2.90564944914585e-01 5.85071094831305e-02 
1.03750000000000e+00 2.88675924404912e-01 6.18909262193078e-02 
1.06250000000000e+00 2.86662079556994e-01 6.54077535000855e-02 
1.08750000000000e+00 2.84490962706762e-01 6.89779905944295e-02 
1.11250000000000e+00 2.82158523871671e-01 7.25060990626718e-02 
1.13750000000000e+00 2.79664524803369e-01 7.59790726644489e-02 
1.16250000000000e+00 2.76992170843492e-01 7.94057883793822e-02 
1.18750000000000e+00 2.74163278449384e-01 8.28840960643638e-02 
1.21250000000000e+00 2.71154989803967e-01 8.63687190191613e-02 
1.23750000000000e+00 2.67938719924347e-01 8.97590837153793e-02 
1.26250000000000e+00 2.64501691556862e-01 9.29941356420353e-02 
1.28750000000000e+00 2.60855150482819e-01 9.60313215265153e-02 
1.31250000000000e+00 2.56990266122017e-01 9.87678259647772e-02 
1.33750000000000e+00 2.52898775776926e-01 1.01083808908836e-01 
1.36250000000000e+00 2.48581702929794e-01 1.02903790226640e-01 
1.38750000000000e+00 2.44062083444696e-01 1.04201354210662e-01 
1.41250000000000e+00 2.39345005257121e-01 1.04949729687186e-01 
1.43750000000000e+00 2.34448292842023e-01 1.05145388664582e-01 
1.46250000000000e+00 2.29388206908117e-01 1.04836771374591e-01 
1.48750000000000e+00 2.24190675920695e-01 1.04105950028549e-01 
1.51250000000000e+00 2.18875212496177e-01 1.03043438213314e-01 
1.53750000000000e+00 2.13516685481158e-01 1.01730610859205e-01 
1.56250000000000e+00 2.08137249648286e-01 1.00260482615246e-01 
1.58750000000000e+00 2.02759487825786e-01 9.86988340340987e-02 
1.61250000000000e+00 1.97402151961695e-01 9.70746576643536e-02 
1.63750000000000e+00 1.92115330221276e-01 9.53909892516802e-02 
1.66250000000000e+00 1.86911773364357e-01 9.36520272276141e-02 
1.68750000000000e+00 1.81798300079851e-01 9.18371290674579e-02 
1.71250000000000e+00 1.76775555087210e-01 8.99162420022590e-02 
1.73750000000000e+00 1.71894592544591e-01 8.78563498572267e-02 
1.76250000000000e+00 1.67155572034411e-01 8.56506992590286e-02 
1.78750000000000e+00 1.62559134799880e-01 8.32963315841857e-02 
1.81250000000000e+00 1.58108494950833e-01 8.08114310251880e-02 
1.83750000000000e+00 1.53809080069165e-01 7.82466527347337e-02 
1.86250000000000e+00 1.49664721993161e-01 7.56771334200566e-02 
1.88750000000000e+00 1.45679113721598e-01 7.31803392214264e-02 
1.91250000000000e+00 1.41854083451015e-01 7.08116416973312e-02 
1.93750000000000e+00 1.38223963994753e-01 6.85723941261492e-02 
1.96250000000000e+00 1.34784797928015e-01 6.64623288692909e-02 
1.98750000000000e+00 1.31534042167509e-01 6.44595749899231e-02 
2.01250000000000e+00 1.28463395729598e-01 6.25249837414123e-02 
2.03750000000000e+00 1.25563409757504e-01 6.06279252751089e-02 
2.06250000000000e+00 1.22828047042923e-01 5.87660361639448e-02 
2.08750000000000e+00 1.20245327368783e-01 5.69464066123382e-02 
2.11250000000000e+00 1.17802056459120e-01 5.51636598126255e-02 
2.13750000000000e+00 1.15458432222037e-01 5.34351507483213e-02 
2.16250000000000e+00 1.13212245583144e-01 5.17611772213907e-02 
2.18750000000000e+00 1.11058905846416e-01 5.01393536137900e-02 
2.21250000000000e+00 1.08999468380978e-01 4.85657287346914e-02 
2.23750000000000e+00 1.07027850308815e-01 4.70516942255522e-02 
2.26250000000000e+00 1.05145884118849e-01 4.56047611744711e-02 
2.28750000000000e+00 1.03351020794550e-01 4.42279491424426e-02 
2.31250000000000e+00 1.01636788431945e-01 4.29234316681927e-02 
2.33750000000000e+00 9.99977775954222e-02 4.16896303414465e-02 
2.36250000000000e+00 9.84227019811579e-02 4.05182254231485e-02 
2.38750000000000e+00 9.69063923900177e-02 3.93953794928884e-02 
2.41250000000000e+00 9.54435485438109e-02 3.83161056843366e-02 
2.43750000000000e+00 9.40363634184980e-02 3.72762707379403e-02 
2.46250000000000e+00 9.26831733001743e-02 3.62799138940469e-02 
2.48750000000000e+00 9.13880162181726e-02 3.53335542925990e-02 
2.51250000000000e+00 9.01482268262588e-02 3.44434856674211e-02 
2.53750000000000e+00 8.89532021534390e-02 3.36121639648790e-02 
2.56250000000000e+00 8.77982390676282e-02 3.28342193886011e-02 
2.58750000000000e+00 8.66785909759962e-02 3.20997952262503e-02 
2.61250000000000e+00 8.55893909268416e-02 3.13959559043943e-02 
2.63750000000000e+00 8.45286726120264e-02 3.07130631228081e-02 
2.66250000000000e+00 8.34967813772494e-02 3.00477427591993e-02 
2.68750000000000e+00 8.24933491636932e-02 2.94030630703733e-02 
2.71250000000000e+00 8.15201581793654e-02 2.87858085224867e-02 
2.73750000000000e+00 8.05764000405781e-02 2.82047443827870e-02 
2.76250000000000e+00 7.96618754497373e-02 2.76624465970807e-02 
2.78750000000000e+00 7.87722506713480e-02 2.71557248957172e-02 
2.81250000000000e+00 7.79056296701265e-02 2.66761453551304e-02 
2.83750000000000e+00 7.70567978835722e-02 2.62172731124327e-02 
2.86250000000000e+00 7.62254731990223e-02 2.57724799756259e-02 
2.88750000000000e+00 7.54101789730788e-02 2.53403330814332e-02 
2.91250000000000e+00 7.46122645133638e-02 2.49234087568583e-02 
2.93750000000000e+00 7.38314398827145e-02 2.45267997469988e-02 
2.96250000000000e+00 7.30676855113350e-02 2.41533444883675e-02 
2.98750000000000e+00 7.23195332459025e-02 2.38032007124211e-02 
3.01250000000000e+00 7.15856102670214e-02 2.34730632316802e-02 
3.03750000000000e+00 7.08642004091832e-02 2.31580443623484e-02 
3.06250000000000e+00 7.01542146588529e-02 2.28534895133294e-02 
3.08750000000000e+00 6.94551902575485e-02 2.25564993954378e-02 
3.11250000000000e+00 6.87670901160410e-02 2.22662069287319e-02 
3.13750000000000e+00 6.80901721040576e-02 2.19844652761233e-02 
3.16250000000000e+00 6.74241682750235e-02 2.17147540343381e-02 
3.18750000000000e+00 6.67689582360678e-02 2.14584781493351e-02 
3.21250000000000e+00 6.61234752987588e-02 2.12146045413131e-02 
3.23750000000000e+00 6.54876356121611e-02 2.09805524402771e-02 
3.26250000000000e+00 6.48605815194781e-02 2.07530419918316e-02 
3.28750000000000e+00 6.42421176154165e-02 2.05290059915241e-02 
3.31250000000000e+00 6.36319639972292e-02 2.03075686759121e-02 
3.33750000000000e+00 6.30295832183910e-02 2.00892433690767e-02 
3.36250000000000e+00 6.24348529350300e-02 1.98745311406740e-02 
3.38750000000000e+00 6.18477889328829e-02 1.96636803549829e-02 
3.41250000000000e+00 6.12680164631795e-02 1.94567045149574e-02 
3.43750000000000e+00 6.06954885736677e-02 1.92531569007390e-02 
3.46250000000000e+00 6.01298201486937e-02 1.90521786339364e-02 
3.48750000000000e+00 5.95708780894582e-02 1.88528188009552e-02 
3.51250000000000e+00 5.90185436959271e-02 1.86549264260025e-02 
3.53750000000000e+00 5.84728425167770e-02 1.84588048363709e-02 
3.56250000000000e+00 5.79337031380571e-02 1.82651577754167e-02 
3.58750000000000e+00 5.74011309015772e-02 1.80756055514719e-02 
3.61250000000000e+00 5.68751663444714e-02 1.78921531742012e-02 
3.63750000000000e+00 5.63556037639747e-02 1.77149170802641e-02 
3.66250000000000e+00 5.58422531166470e-02 1.75420424839293e-02 
3.68750000000000e+00 5.53351105919020e-02 1.73722654746132e-02 
3.71250000000000e+00 5.48340218309137e-02 1.72056146747181e-02 
3.73750000000000e+00 5.43389165338767e-02 1.70423982150967e-02 
3.76250000000000e+00 5.38496346384600e-02 1.68824473857601e-02 
3.78750000000000e+00 5.33660876774581e-02 1.67251306687436e-02 
3.81250000000000e+00 5.28881053405598e-02 1.65701821226914e-02 
3.83750000000000e+00 5.24154016945094e-02 1.64176228274432e-02 
3.86250000000000e+00 5.19478342574313e-02 1.62672892629524e-02 
3.88750000000000e+00 5.14853207612019e-02 1.61189443405657e-02 
3.91250000000000e+00 5.10276951626096e-02 1.59728114792045e-02 
3.93750000000000e+00 5.05752061301485e-02 1.58293111219168e-02 
3.96250000000000e+00 5.01277455927677e-02 1.56887388328079e-02 
3.98750000000000e+00 4.96853248614125e-02 1.55512383629555e-02 
4.01250000000000e+00 4.92479251869009e-02 1.54168604240347e-02 
4.03750000000000e+00 4.88149041565014e-02 1.52856677929363e-02 
4.06250000000000e+00 4.83861364275946e-02 1.51575550293286e-02 
4.08750000000000e+00 4.79617116629827e-02 1.50323676360749e-02 
4.11250000000000e+00 4.75415296184316e-02 1.49100206141090e-02 
4.13750000000000e+00 4.71252320602143e-02 1.47904171217058e-02 
4.16250000000000e+00 4.67127375149692e-02 1.46733138034638e-02 
4.18750000000000e+00 4.63039656732899e-02 1.45585653712061e-02 
4.21250000000000e+00 4.58988166350782e-02 1.44461983257199e-02 
4.23750000000000e+00 4.54974356868510e-02 1.43362586405640e-02 
4.26250000000000e+00 4.50997180156318e-02 1.42288301523109e-02 
4.28750000000000e+00 4.47055717519206e-02 1.41239622602685e-02 
4.31250000000000e+00 4.43149099989666e-02 1.40216443261958e-02 
4.33750000000000e+00 4.39276849507751e-02 1.39218249504875e-02 
4.36250000000000e+00 4.35438161597997e-02 1.38244273674535e-02 
4.38750000000000e+00 4.31632229487866e-02 1.37292876629969e-02 
4.41250000000000e+00 4.27858303965262e-02 1.36362235116925e-02 
4.43750000000000e+00 4.24114882723614e-02 1.35450943942939e-02 
4.46250000000000e+00 4.20402344213463e-02 1.34558007065242e-02 
4.48750000000000e+00 4.16720055955210e-02 1.33683149498135e-02 
4.51250000000000e+00 4.13067413270487e-02 1.32823731296495e-02 
4.53750000000000e+00 4.09444211772530e-02 1.31975854628797e-02 
4.56250000000000e+00 4.05852957561507e-02 1.31138176005193e-02 
4.58750000000000e+00 4.02293202086497e-02 1.30311332463307e-02 
4.61250000000000e+00 3.98764505335481e-02 1.29494472056984e-02 
4.63750000000000e+00 3.95266319833057e-02 1.28685872689484e-02 
4.66250000000000e+00 3.91798445895814e-02 1.27883989120030e-02 
4.68750000000000e+00 3.88360572392393e-02 1.27088251757310e-02 
4.71250000000000e+00 3.84952404601308e-02 1.26298285978548e-02 
4.73750000000000e+00 3.81573091192472e-02 1.25513911449784e-02 
4.76250000000000e+00 3.78222365430743e-02 1.24737740713642e-02 
4.78750000000000e+00 3.74899819139227e-02 1.23974733878844e-02 
4.81250000000000e+00 3.71604921810414e-02 1.23227185564477e-02 
4.83750000000000e+00 3.68337738885888e-02 1.22495206160481e-02 
4.86250000000000e+00 3.65098053093788e-02 1.21779024641455e-02 
4.88750000000000e+00 3.61885325475870e-02 1.21078509328434e-02 
4.91250000000000e+00 3.58699032535810e-02 1.20391090514996e-02 
4.93750000000000e+00 3.55538410926686e-02 1.19712284470404e-02 
4.96250000000000e+00 3.52403246312296e-02 1.19039922076412e-02 
4.98750000000000e+00 3.49293286014953e-02 1.18373956463958e-02 
5.01250000000000e+00 3.46208263746705e-02 1.17714473853498e-02 
5.03750000000000e+00 3.43145107149815e-02 1.17063569517212e-02 
5.06250000000000e+00 3.40103397075050e-02 1.16423616773204e-02 
5.08750000000000e+00 3.37082396757379e-02 1.15794912035594e-02 
5.11250000000000e+00 3.34081618113686e-02 1.15174712570638e-02 
5.13750000000000e+00 3.31100917749637e-02 1.14559564319174e-02 
5.16250000000000e+00 3.28140150205633e-02 1.13948136646399e-02 
5.18750000000000e+00 3.25199636726757e-02 1.13340460382106e-02 
5.21250000000000e+00 3.22279268087501e-02 1.12736214311965e-02 
5.23750000000000e+00 3.19378447964468e-02 1.12134987472270e-02 
5.26250000000000e+00 3.16497048196322e-02 1.11536757971347e-02 
5.28750000000000e+00 3.13634950215698e-02 1.10941653247092e-02 
5.31250000000000e+00 3.10792054343228e-02 1.10349593440341e-02 
5.33750000000000e+00 3.07967547064587e-02 1.09760588477358e-02 
5.36250000000000e+00 3.05161310658162e-02 1.09174551806057e-02 
5.38750000000000e+00 3.02373226591312e-02 1.08591466204047e-02 
5.41250000000000e+00 2.99603181543821e-02 1.08011131163954e-02 
5.43750000000000e+00 2.96851078259376e-02 1.07433462551893e-02 
5.46250000000000e+00 2.94116803752036e-02 1.06858844163630e-02 
5.48750000000000e+00 2.91400234551965e-02 1.06287545609472e-02 
5.51250000000000e+00 2.88701248040114e-02 1.05719305459659e-02 
5.53750000000000e+00 2.86020725978562e-02 1.05153385369021e-02 
5.56250000000000e+00 2.83358573959743e-02 1.04589435766897e-02 
5.58750000000000e+00 2.80714693070614e-02 1.04027418993279e-02 
5.61250000000000e+00 2.78088984005859e-02 1.03467382526106e-02 
5.63750000000000e+00 2.75481028385130e-02 1.02909656948855e-02 
5.66250000000000e+00 2.72890719020191e-02 1.02354744444590e-02 
5.68750000000000e+00 2.70317935618829e-02 1.01802887574945e-02 
5.71250000000000e+00 2.67762558260302e-02 1.01254090283141e-02 
5.73750000000000e+00 2.65224784159590e-02 1.00707972136418e-02 
5.76250000000000e+00 2.62704508642256e-02 1.00163910804351e-02 
5.78750000000000e+00 2.60201642324531e-02 9.96216905525478e-03 
5.81250000000000e+00 2.57716092635727e-02 9.90811652820663e-03 
5.83750000000000e+00 2.55247482012212e-02 9.85422354900007e-03 
5.86250000000000e+00 2.52795731227074e-02 9.80053504143171e-03 
5.88750000000000e+00 2.50360736856225e-02 9.74709777995120e-03 
5.91250000000000e+00 2.47942257682470e-02 9.69393645616927e-03 
5.93750000000000e+00 2.45538053063495e-02 9.64111072727844e-03 
5.96250000000000e+00 2.43148025662186e-02 9.58861656550374e-03 
5.98750000000000e+00 2.40772078983568e-02 9.53645002637552e-03 
6.01250000000000e+00 2.38410117163433e-02 9.48449643783366e-03 
6.03750000000000e+00 2.36059446940480e-02 9.43257066108302e-03 
6.06250000000000e+00 2.33719669326053e-02 9.38054458093975e-03 
6.08750000000000e+00 2.31390816648467e-02 9.32841219948946e-03 
6.11250000000000e+00 2.29072934042060e-02 9.27620464306777e-03 
6.13750000000000e+00 2.26767285651315e-02 9.22395441835546e-03 
6.16250000000000e+00 2.24473885445027e-02 9.17169351036928e-03 
6.18750000000000e+00 2.22192745602598e-02 9.11942623528433e-03 
6.21250000000000e+00 2.19923872930837e-02 9.06712920809738e-03 
6.23750000000000e+00 2.17667307730875e-02 9.01476270134963e-03 
6.26250000000000e+00 2.15423077112408e-02 8.96233110202251e-03 
6.28750000000000e+00 2.13191200175339e-02 8.90985562630862e-03 
6.31250000000000e+00 2.10971693344624e-02 8.85735450762428e-03 
6.33750000000000e+00 2.08764566238928e-02 8.80482985065953e-03 
6.36250000000000e+00 2.06569835113883e-02 8.75224977310221e-03 
6.38750000000000e+00 2.04387526210933e-02 8.69959910189352e-03 
6.41250000000000e+00 2.02217663263920e-02 8.64681409767230e-03 
6.43750000000000e+00 2.00060342281953e-02 8.59378297484647e-03 
6.46250000000000e+00 1.97915642953514e-02 8.54049229284587e-03 
6.48750000000000e+00 1.95783629916491e-02 8.48697804395894e-03 
6.51250000000000e+00 1.93664364799777e-02 8.43328252997512e-03 
6.53750000000000e+00 1.91557881570150e-02 8.37946282615445e-03 
6.56250000000000e+00 1.89464213338333e-02 8.32553560144735e-03 
6.58750000000000e+00 1.87383396863335e-02 8.27150132235644e-03 
6.61250000000000e+00 1.85315465305217e-02 8.21734637863722e-03 
6.63750000000000e+00 1.83260667689062e-02 8.16303717692193e-03 
6.66250000000000e+00 1.81219050065637e-02 8.10857718845992e-03 
6.68750000000000e+00 1.79190652147635e-02 8.05398528772690e-03 
6.71250000000000e+00 1.77175510816747e-02 7.99929535210691e-03 
6.73750000000000e+00 1.75173639778898e-02 7.94456471775156e-03 
6.76250000000000e+00 1.73185047298783e-02 7.88983162499877e-03 
6.78750000000000e+00 1.71209737170589e-02 7.83510934289825e-03 
6.81250000000000e+00 1.69247710977960e-02 7.78042737378513e-03 
6.83750000000000e+00 1.67298928585940e-02 7.72581229159667e-03 
6.86250000000000e+00 1.65363381445075e-02 7.67124697575062e-03 
6.88750000000000e+00 1.63441064811098e-02 7.61671792669804e-03 
6.91250000000000e+00 1.61531974589955e-02 7.56222067876316e-03 
6.93750000000000e+00 1.59634934355026e-02 7.50775915441194e-03 
6.96250000000000e+00 1.57749963495492e-02 7.45331187547329e-03 
6.98750000000000e+00 1.55877081633313e-02 7.39888359131550e-03 
7.01250000000000e+00 1.54016295614322e-02 7.34445389212536e-03 
7.03750000000000e+00 1.52167985570766e-02 7.28996598173681e-03 
7.06250000000000e+00 1.50332186985268e-02 7.23540736673404e-03 
7.08750000000000e+00 1.48508933992714e-02 7.18079231436914e-03 
7.11250000000000e+00 1.46698257555315e-02 7.12598340989691e-03 
7.13750000000000e+00 1.44899317134621e-02 7.07075008154152e-03 
7.16250000000000e+00 1.43112283027881e-02 7.01501277691108e-03 
7.18750000000000e+00 1.41337307182716e-02 6.95882021991134e-03 
7.21250000000000e+00 1.39574535967430e-02 6.90221508495690e-03 
7.23750000000000e+00 1.37824092199673e-02 6.84523608392474e-03 
7.26250000000000e+00 1.36086106055436e-02 6.78788476767883e-03 
7.28750000000000e+00 1.34360709218512e-02 6.73016624861611e-03 
7.31250000000000e+00 1.32648027535087e-02 6.67208495986754e-03 
7.33750000000000e+00 1.30948203322224e-02 6.61362694909473e-03 
7.36250000000000e+00 1.29261370246110e-02 6.55479956165737e-03 
7.38750000000000e+00 1.27587655252030e-02 6.49562823785016e-03 
7.41250000000000e+00 1.25927179367719e-02 6.43620216318634e-03 
7.43750000000000e+00 1.24280150860411e-02 6.37667100852136e-03 
7.46250000000000e+00 1.22646609463569e-02 6.31712512697521e-03 
7.48750000000000e+00 1.21026589457614e-02 6.25758491050528e-03 
7.51250000000000e+00 1.19420121297828e-02 6.19806437233610e-03 
7.53750000000000e+00 1.17827233362405e-02 6.13857468722347e-03 
7.56250000000000e+00 1.16247950219749e-02 6.07912571583287e-03 
7.58750000000000e+00 1.14682293839337e-02 6.01972965754754e-03 
7.61250000000000e+00 1.13130282501485e-02 5.96040112719150e-03 
7.63750000000000e+00 1.11591930654551e-02 5.90115354777033e-03 
7.66250000000000e+00 1.10067248537078e-02 5.84199762457440e-03 
7.68750000000000e+00 1.08556244857400e-02 5.78294450775037e-03 
7.71250000000000e+00 1.07058924938413e-02 5.72400831465394e-03 
7.73750000000000e+00 1.05575829265634e-02 5.66518204180818e-03 
7.76250000000000e+00 1.04106950026470e-02 5.60647366293872e-03 
