Energy(eV)           EEDF(eV^-(3/2))      Anisotropy(eV^-(3/2))
1.25000000000000e-02 1.58702643508984e-01 -1.08866017227903e-03 
3.75000000000000e-02 1.58719058362642e-01 -3.68396448077056e-04 
6.25000000000000e-02 1.58732525198862e-01 1.47544650609921e-04 
8.75000000000000e-02 1.58742514188079e-01 5.18016565400470e-04 
1.12500000000000e-01 1.58748459075220e-01 8.54796981865805e-04 
1.37500000000000e-01 1.58750015240647e-01 1.34889996501908e-03 
1.62500000000000e-01 1.58742564309834e-01 1.95659206306561e-03 
1.87500000000000e-01 1.58725722991441e-01 2.47172504855958e-03 
2.12500000000000e-01 1.58699849058792e-01 2.91940127791537e-03 
2.37500000000000e-01 1.58665058090158e-01 3.26081490776574e-03 
2.62500000000000e-01 1.58623608761062e-01 4.38232049894480e-03 
2.87500000000000e-01 1.58546384389039e-01 6.25448745670240e-03 
3.12500000000000e-01 1.58432732128000e-01 7.29850712975314e-03 
3.37500000000000e-01 1.58303554430494e-01 7.62818619636761e-03 
3.62500000000000e-01 1.58167814154517e-01 7.91986486743017e-03 
3.87500000000000e-01 1.58022500922111e-01 8.91912592727389e-03 
4.12500000000000e-01 1.57836423813050e-01 1.09922866127182e-02 
4.37500000000000e-01 1.57595718404259e-01 1.20921257923928e-02 
4.62500000000000e-01 1.57300065515368e-01 1.16493966694823e-02 
4.87500000000000e-01 1.57068824922790e-01 1.13516924285709e-02 
5.12500000000000e-01 1.56826031769371e-01 1.20505130362442e-02 
5.37500000000000e-01 1.56555855172125e-01 1.32245245752120e-02 
5.62500000000000e-01 1.56255239401202e-01 1.34521458736856e-02 
5.87500000000000e-01 1.55904406771891e-01 1.27829968156540e-02 
6.12500000000000e-01 1.55632249343036e-01 1.30088258618851e-02 
6.37500000000000e-01 1.55339074192155e-01 1.44007522127200e-02 
6.62500000000000e-01 1.55023573951775e-01 1.53959839785008e-02 
6.87500000000000e-01 1.54707807665523e-01 1.54349746521263e-02 
7.12500000000000e-01 1.54360376144054e-01 1.50668335079137e-02 
7.37500000000000e-01 1.54073003315973e-01 1.51397811014792e-02 
7.62500000000000e-01 1.53776154319731e-01 1.57404522305431e-02 
7.87500000000000e-01 1.53467965862306e-01 1.57244225056695e-02 
8.12500000000000e-01 1.53097051396564e-01 1.51294951330431e-02 
8.37500000000000e-01 1.52792199614815e-01 1.50630757051444e-02 
8.62500000000000e-01 1.52449556954884e-01 1.56621798886358e-02 
8.87500000000000e-01 1.52066415048114e-01 1.62055111325253e-02 
9.12500000000000e-01 1.51644391983544e-01 1.65521095448999e-02 
9.37500000000000e-01 1.51195240968765e-01 1.67718861498018e-02 
9.62500000000000e-01 1.50747612932686e-01 1.71302300054537e-02 
9.87500000000000e-01 1.50279525090598e-01 1.76128524720717e-02 
1.01250000000000e+00 1.49791011581530e-01 1.79313324415300e-02 
1.03750000000000e+00 1.49274472748049e-01 1.80866657539117e-02 
1.06250000000000e+00 1.48764960942101e-01 1.83631941062226e-02 
1.08750000000000e+00 1.48237915703525e-01 1.87500242172307e-02 
1.11250000000000e+00 1.47693536662109e-01 1.91041384926764e-02 
1.13750000000000e+00 1.47133036346991e-01 1.93737193776765e-02 
1.16250000000000e+00 1.46549986220859e-01 1.95875315600499e-02 
1.18750000000000e+00 1.45963503921773e-01 1.98627774573439e-02 
1.21250000000000e+00 1.45360440582833e-01 2.01728265167451e-02 
1.23750000000000e+00 1.44747714882986e-01 2.04404047182283e-02 
1.26250000000000e+00 1.44122365279582e-01 2.06771352771102e-02 
1.28750000000000e+00 1.43493876979062e-01 2.09355833920129e-02 
1.31250000000000e+00 1.42856221563358e-01 2.12072079541674e-02 
1.33750000000000e+00 1.42212861933339e-01 2.14513973700942e-02 
1.36250000000000e+00 1.41561223695601e-01 2.16726336125288e-02 
1.38750000000000e+00 1.40909275214649e-01 2.19121364877834e-02 
1.41250000000000e+00 1.40252042362160e-01 2.21657382755217e-02 
1.43750000000000e+00 1.39589819823023e-01 2.24036343316742e-02 
1.46250000000000e+00 1.38921662667961e-01 2.26246063939838e-02 
1.48750000000000e+00 1.38251366102453e-01 2.28456805657929e-02 
1.51250000000000e+00 1.37577006717882e-01 2.30667333586124e-02 
1.53750000000000e+00 1.36898845161254e-01 2.32776458553655e-02 
1.56250000000000e+00 1.36216531824659e-01 2.34785905867398e-02 
1.58750000000000e+00 1.35531881388196e-01 2.36766708270779e-02 
1.61250000000000e+00 1.34844139057394e-01 2.38718928957748e-02 
1.63750000000000e+00 1.34153542018590e-01 2.40598038191036e-02 
1.66250000000000e+00 1.33460059683761e-01 2.42404944932010e-02 
1.68750000000000e+00 1.32764526515855e-01 2.44168541944982e-02 
1.71250000000000e+00 1.32066759027541e-01 2.45888058470576e-02 
1.73750000000000e+00 1.31367738567369e-01 2.47551332339312e-02 
1.76250000000000e+00 1.30667678197332e-01 2.49159057763794e-02 
1.78750000000000e+00 1.29966781762636e-01 2.50713173868439e-02 
1.81250000000000e+00 1.29265246001408e-01 2.52213803417385e-02 
1.83750000000000e+00 1.28563272895400e-01 2.53658919280434e-02 
1.86250000000000e+00 1.27861064783457e-01 2.55047360316842e-02 
1.88750000000000e+00 1.27158821574245e-01 2.56380173498183e-02 
1.91250000000000e+00 1.26456735800442e-01 2.57659743239706e-02 
1.93750000000000e+00 1.25754185554328e-01 2.58887180375779e-02 
1.96250000000000e+00 1.25051340888344e-01 2.60063148188906e-02 
1.98750000000000e+00 1.24348347258116e-01 2.61186440989979e-02 
2.01250000000000e+00 1.23645360601452e-01 2.62256799796394e-02 
2.03750000000000e+00 1.22942553383594e-01 2.63275157062131e-02 
2.06250000000000e+00 1.22240089517237e-01 2.64241929079507e-02 
2.08750000000000e+00 1.21538130981450e-01 2.65157848344794e-02 
2.11250000000000e+00 1.20836834153193e-01 2.66023806289905e-02 
2.13750000000000e+00 1.20135352751415e-01 2.66838439865104e-02 
2.16250000000000e+00 1.19433837566232e-01 2.67601968894188e-02 
2.18750000000000e+00 1.18732435408935e-01 2.68315347125038e-02 
2.21250000000000e+00 1.18031289606293e-01 2.68978175622560e-02 
2.23750000000000e+00 1.17330100219820e-01 2.69587953723312e-02 
2.26250000000000e+00 1.16629020020813e-01 2.70143781893975e-02 
2.28750000000000e+00 1.15928197198349e-01 2.70646676040275e-02 
2.31250000000000e+00 1.15227775378263e-01 2.71097979798553e-02 
2.33750000000000e+00 1.14528093318462e-01 2.71498874194797e-02 
2.36250000000000e+00 1.13829287465398e-01 2.71849940483623e-02 
2.38750000000000e+00 1.13131492190090e-01 2.72152044424821e-02 
2.41250000000000e+00 1.12434837354285e-01 2.72405928385491e-02 
2.43750000000000e+00 1.11741840706707e-01 2.72613252976226e-02 
2.46250000000000e+00 1.11052627363949e-01 2.72775006052831e-02 
2.48750000000000e+00 1.10367318588663e-01 2.72892064717963e-02 
2.51250000000000e+00 1.09686030740725e-01 2.72966249444248e-02 
2.53750000000000e+00 1.09005993951850e-01 2.72998052250553e-02 
2.56250000000000e+00 1.08327316593210e-01 2.72987310992581e-02 
2.58750000000000e+00 1.07650105233842e-01 2.72934930310424e-02 
2.61250000000000e+00 1.06974462365471e-01 2.72842168416563e-02 
2.63750000000000e+00 1.06301110512186e-01 2.72710299416846e-02 
2.66250000000000e+00 1.05630143737859e-01 2.72540421400765e-02 
2.68750000000000e+00 1.04961653569450e-01 2.72333359142549e-02 
2.71250000000000e+00 1.04295728267470e-01 2.72090383236930e-02 
2.73750000000000e+00 1.03632455405045e-01 2.71813230596055e-02 
2.76250000000000e+00 1.02971913048825e-01 2.71503474474146e-02 
2.78750000000000e+00 1.02314175486925e-01 2.71162009833296e-02 
2.81250000000000e+00 1.01659314935074e-01 2.70789473925568e-02 
2.83750000000000e+00 1.01006288700347e-01 2.70386349375281e-02 
2.86250000000000e+00 1.00355173381047e-01 2.69952074233548e-02 
2.88750000000000e+00 9.97060423348384e-02 2.69486917850582e-02 
2.91250000000000e+00 9.90589668381749e-02 2.68992021156970e-02 
2.93750000000000e+00 9.84140967130694e-02 2.68468699833375e-02 
2.96250000000000e+00 9.77714957662771e-02 2.67917589739798e-02 
2.98750000000000e+00 9.71312273057436e-02 2.67339100410811e-02 
3.01250000000000e+00 9.64933525312697e-02 2.66734385832059e-02 
3.03750000000000e+00 9.58577390804909e-02 2.66105549340415e-02 
3.06250000000000e+00 9.52244338646643e-02 2.65454620445103e-02 
3.08750000000000e+00 9.45934842697425e-02 2.64782661733498e-02 
3.11250000000000e+00 9.39649365959865e-02 2.64090292719346e-02 
3.13750000000000e+00 9.33387712218258e-02 2.63378336190693e-02 
3.16250000000000e+00 9.27150306293572e-02 2.62647327584017e-02 
3.18750000000000e+00 9.20937561174865e-02 2.61897885952382e-02 
3.21250000000000e+00 9.14749868794817e-02 2.61131200266134e-02 
3.23750000000000e+00 9.08601018586821e-02 2.60347109216886e-02 
3.26250000000000e+00 9.02491335457109e-02 2.59545869335667e-02 
3.28750000000000e+00 8.96421111924056e-02 2.58727313084122e-02 
3.31250000000000e+00 8.90390625449373e-02 2.57891903062651e-02 
3.33750000000000e+00 8.84378207327762e-02 2.57041904747725e-02 
3.36250000000000e+00 8.78384233760603e-02 2.56176680667383e-02 
3.38750000000000e+00 8.72409068908194e-02 2.55296698191870e-02 
3.41250000000000e+00 8.66453067442209e-02 2.54402456619541e-02 
3.43750000000000e+00 8.60518222415400e-02 2.53495046348363e-02 
3.46250000000000e+00 8.54604789933185e-02 2.52576166076593e-02 
3.48750000000000e+00 8.48713025308421e-02 2.51646614710500e-02 
3.51250000000000e+00 8.42843177122903e-02 2.50706791527782e-02 
3.53750000000000e+00 8.36994891633342e-02 2.49757129798692e-02 
3.56250000000000e+00 8.31168403484138e-02 2.48797746474408e-02 
3.58750000000000e+00 8.25363945855948e-02 2.47828941477842e-02 
3.61250000000000e+00 8.19581739257624e-02 2.46851368702394e-02 
3.63750000000000e+00 8.13820788685976e-02 2.45865932579025e-02 
3.66250000000000e+00 8.08081314965759e-02 2.44873261585813e-02 
3.68750000000000e+00 8.02363495344933e-02 2.43873778268338e-02 
3.71250000000000e+00 7.96667501964688e-02 2.42867693140131e-02 
3.73750000000000e+00 7.90989003367902e-02 2.41855595463740e-02 
3.76250000000000e+00 7.85328199545171e-02 2.40837065744450e-02 
3.78750000000000e+00 7.79685297517049e-02 2.39812116935381e-02 
3.81250000000000e+00 7.74060497639964e-02 2.38781770897339e-02 
3.83750000000000e+00 7.68452466400059e-02 2.37749113640306e-02 
3.86250000000000e+00 7.62861249640453e-02 2.36717532149474e-02 
3.88750000000000e+00 7.57286852548819e-02 2.35688497917587e-02 
3.91250000000000e+00 7.51729278238920e-02 2.34662151696432e-02 
3.93750000000000e+00 7.46190658144395e-02 2.33639178516228e-02 
3.96250000000000e+00 7.40670934529725e-02 2.32621104995635e-02 
3.98750000000000e+00 7.35170022489970e-02 2.31608448325669e-02 
4.01250000000000e+00 7.29687838869804e-02 2.30599328039428e-02 
4.03750000000000e+00 7.24228547160863e-02 2.29590918319968e-02 
4.06250000000000e+00 7.18792171866072e-02 2.28584232849489e-02 
4.08750000000000e+00 7.13378650323698e-02 2.27580534226536e-02 
4.11250000000000e+00 7.07987919895176e-02 2.26580037928402e-02 
4.13750000000000e+00 7.02610013242142e-02 2.25583457410851e-02 
4.16250000000000e+00 6.97244962360805e-02 2.24588543990746e-02 
4.18750000000000e+00 6.91892845203976e-02 2.23593849950550e-02 
4.21250000000000e+00 6.86553540307250e-02 2.22598805639466e-02 
4.23750000000000e+00 6.81236479619264e-02 2.21602718898609e-02 
4.26250000000000e+00 6.75941663077026e-02 2.20607021456360e-02 
4.28750000000000e+00 6.70669088382542e-02 2.19612023493531e-02 
4.31250000000000e+00 6.65418753140981e-02 2.18617456451364e-02 
4.33750000000000e+00 6.60191265533353e-02 2.17623744484818e-02 
4.36250000000000e+00 6.54986594533316e-02 2.16632673345297e-02 
4.38750000000000e+00 6.49804661582742e-02 2.15645220003787e-02 
4.41250000000000e+00 6.44645388255537e-02 2.14659873677158e-02 
4.43750000000000e+00 6.39507251725947e-02 2.13674517032849e-02 
4.46250000000000e+00 6.34390289551433e-02 2.12688998655438e-02 
4.48750000000000e+00 6.29294510711668e-02 2.11704087127683e-02 
4.51250000000000e+00 6.24219922753075e-02 2.10720111048522e-02 
4.53750000000000e+00 6.19165741311651e-02 2.09738627310940e-02 
4.56250000000000e+00 6.14131911352287e-02 2.08761556644367e-02 
4.58750000000000e+00 6.09118335873315e-02 2.07789699502425e-02 
4.61250000000000e+00 6.04124918140531e-02 2.06822622002252e-02 
4.63750000000000e+00 5.99151619298530e-02 2.05857970947494e-02 
4.66250000000000e+00 5.94198476964128e-02 2.04892357596352e-02 
4.68750000000000e+00 5.89265579173086e-02 2.03924375035467e-02 
4.71250000000000e+00 5.84353011393449e-02 2.02953198496654e-02 
4.73750000000000e+00 5.79459942885045e-02 2.01976897089759e-02 
4.76250000000000e+00 5.74586569563911e-02 2.00994043203150e-02 
4.78750000000000e+00 5.69733094826346e-02 2.00004604636324e-02 
4.81250000000000e+00 5.64899714654915e-02 1.99008677920382e-02 
4.83750000000000e+00 5.60087660098641e-02 1.98006368805004e-02 
4.86250000000000e+00 5.55297100740387e-02 1.96998522420524e-02 
4.88750000000000e+00 5.50528190147378e-02 1.95985704469398e-02 
4.91250000000000e+00 5.45781077321970e-02 1.94967858615707e-02 
4.93750000000000e+00 5.41056955091230e-02 1.93944917580475e-02 
4.96250000000000e+00 5.36355960039200e-02 1.92917610306880e-02 
4.98750000000000e+00 5.31678208034274e-02 1.91886485264795e-02 
5.01250000000000e+00 5.27023808962035e-02 1.90852697638484e-02 
5.03750000000000e+00 5.22386133309956e-02 1.89818757143731e-02 
5.06250000000000e+00 5.17765275488598e-02 1.88784201009669e-02 
5.08750000000000e+00 5.13161353971952e-02 1.87748597378681e-02 
5.11250000000000e+00 5.08574484703649e-02 1.86712137964405e-02 
5.13750000000000e+00 5.04009218992338e-02 1.85674814168332e-02 
5.16250000000000e+00 4.99465600114888e-02 1.84637975302617e-02 
5.18750000000000e+00 4.94943645960790e-02 1.83602196138971e-02 
5.21250000000000e+00 4.90443371238506e-02 1.82567264531770e-02 
5.23750000000000e+00 4.85963223737438e-02 1.81533639396110e-02 
5.26250000000000e+00 4.81503221892807e-02 1.80502465562890e-02 
5.28750000000000e+00 4.77063345801741e-02 1.79474506037225e-02 
5.31250000000000e+00 4.72643575504705e-02 1.78449531666768e-02 
5.33750000000000e+00 4.68240787369207e-02 1.77427663374582e-02 
5.36250000000000e+00 4.63855007875659e-02 1.76408574623377e-02 
5.38750000000000e+00 4.59486261377825e-02 1.75392342302923e-02 
5.41250000000000e+00 4.55134569723016e-02 1.74378295439864e-02 
5.43750000000000e+00 4.50800028853588e-02 1.73365367277452e-02 
5.46250000000000e+00 4.46482722509850e-02 1.72353592863283e-02 
5.48750000000000e+00 4.42182705512892e-02 1.71343381422251e-02 
5.51250000000000e+00 4.37900031132219e-02 1.70334685411192e-02 
5.53750000000000e+00 4.33639246657322e-02 1.69326118795214e-02 
5.56250000000000e+00 4.29400396158791e-02 1.68316992859095e-02 
5.58750000000000e+00 4.25183544729296e-02 1.67306979614362e-02 
5.61250000000000e+00 4.20988753123932e-02 1.66296227968446e-02 
5.63750000000000e+00 4.16814626239461e-02 1.65286160878711e-02 
5.66250000000000e+00 4.12661182526801e-02 1.64278875780261e-02 
5.68750000000000e+00 4.08528381642806e-02 1.63275451187091e-02 
5.71250000000000e+00 4.04416183075993e-02 1.62276008328723e-02 
5.73750000000000e+00 4.00325962704039e-02 1.61278708015686e-02 
5.76250000000000e+00 3.96257748889115e-02 1.60280162774294e-02 
5.78750000000000e+00 3.92211658268855e-02 1.59278721065020e-02 
5.81250000000000e+00 3.88187801931449e-02 1.58273581145508e-02 
5.83750000000000e+00 3.84185003546193e-02 1.57264491163418e-02 
5.86250000000000e+00 3.80203428115447e-02 1.56253150340430e-02 
5.88750000000000e+00 3.76243155407363e-02 1.55240992279993e-02 
5.91250000000000e+00 3.72304261937457e-02 1.54228674956507e-02 
5.93750000000000e+00 3.68377307132565e-02 1.53219111893986e-02 
5.96250000000000e+00 3.64462404223004e-02 1.52212190781430e-02 
5.98750000000000e+00 3.60559665947976e-02 1.51207932424744e-02 
6.01250000000000e+00 3.56669201407947e-02 1.50204250885296e-02 
6.03750000000000e+00 3.52791340122715e-02 1.49197110292396e-02 
6.06250000000000e+00 3.48926390134847e-02 1.48184920436472e-02 
6.08750000000000e+00 3.45074656244912e-02 1.47168111772762e-02 
6.11250000000000e+00 3.41236436249252e-02 1.46148051571866e-02 
6.13750000000000e+00 3.37417970833163e-02 1.45125712930560e-02 
6.16250000000000e+00 3.33619384491019e-02 1.44102409143569e-02 
6.18750000000000e+00 3.29840801483458e-02 1.43078219136439e-02 
6.21250000000000e+00 3.26082340846264e-02 1.42052059197526e-02 
6.23750000000000e+00 3.22344256595563e-02 1.41022158929610e-02 
6.26250000000000e+00 3.18626759554052e-02 1.39988621486989e-02 
6.28750000000000e+00 3.14930026947096e-02 1.38952253975133e-02 
6.31250000000000e+00 3.11254229046272e-02 1.37913708284933e-02 
6.33750000000000e+00 3.07599499253444e-02 1.36872967803508e-02 
6.36250000000000e+00 3.03966011044760e-02 1.35828637104558e-02 
6.38750000000000e+00 3.00353983205956e-02 1.34780019367447e-02 
6.41250000000000e+00 2.96763626273743e-02 1.33724408159241e-02 
6.43750000000000e+00 2.93195461824324e-02 1.32657117042671e-02 
6.46250000000000e+00 2.89649954540004e-02 1.31577527071031e-02 
6.48750000000000e+00 2.86127505739854e-02 1.30487065560184e-02 
6.51250000000000e+00 2.82628503363064e-02 1.29387399092416e-02 
6.53750000000000e+00 2.79153210532801e-02 1.28280786517908e-02 
6.56250000000000e+00 2.75701896304157e-02 1.27167851519687e-02 
6.58750000000000e+00 2.72274843052579e-02 1.26048570272908e-02 
6.61250000000000e+00 2.68872322935833e-02 1.24922346873909e-02 
6.63750000000000e+00 2.65495021553837e-02 1.23787821525258e-02 
6.66250000000000e+00 2.62143277431097e-02 1.22645043503238e-02 
6.68750000000000e+00 2.58817403461206e-02 1.21494741091220e-02 
6.71250000000000e+00 2.55517700382989e-02 1.20338237653798e-02 
6.73750000000000e+00 2.52244368773529e-02 1.19177789055984e-02 
6.76250000000000e+00 2.48997588020753e-02 1.18014870088663e-02 
6.78750000000000e+00 2.45777520409666e-02 1.16849959291523e-02 
6.81250000000000e+00 2.42584319571275e-02 1.15684306426453e-02 
6.83750000000000e+00 2.39418030602119e-02 1.14519147153380e-02 
6.86250000000000e+00 2.36278752440290e-02 1.13353874497767e-02 
6.88750000000000e+00 2.33166612466133e-02 1.12187902715112e-02 
6.91250000000000e+00 2.30081730008808e-02 1.11020860487283e-02 
6.93750000000000e+00 2.27019409131498e-02 1.09853101643244e-02 
6.96250000000000e+00 2.23979901807441e-02 1.08683677786033e-02 
6.98750000000000e+00 2.20963460790944e-02 1.07512776737768e-02 
7.01250000000000e+00 2.17970328399285e-02 1.06342123395093e-02 
7.03750000000000e+00 2.15005263837637e-02 1.05173192675804e-02 
7.06250000000000e+00 2.12068263776286e-02 1.04007860419895e-02 
7.08750000000000e+00 2.09159327696718e-02 1.02846352939156e-02 
7.11250000000000e+00 2.06278449711351e-02 1.01688943689278e-02 
7.13750000000000e+00 2.03425610245853e-02 1.00536867545896e-02 
7.16250000000000e+00 2.00600732258888e-02 9.93920736296374e-03 
7.18750000000000e+00 1.97803686428904e-02 9.82554911973266e-03 
7.21250000000000e+00 1.95034340809023e-02 9.71278383692282e-03 
7.23750000000000e+00 1.92292489931499e-02 9.60097105217315e-03 
7.26250000000000e+00 1.89577976638777e-02 9.49002728273352e-03 
7.28750000000000e+00 1.86890673683208e-02 9.37988296017795e-03 
7.31250000000000e+00 1.84230451267770e-02 9.27046607652461e-03 
7.33750000000000e+00 1.81597265317607e-02 9.16163448586919e-03 
7.36250000000000e+00 1.78991064294474e-02 9.05333111241948e-03 
7.38750000000000e+00 1.76411790958603e-02 8.94557096212641e-03 
7.41250000000000e+00 1.73859383716747e-02 8.83852668956101e-03 
7.43750000000000e+00 1.71333596320171e-02 8.73253946636458e-03 
7.46250000000000e+00 1.68834166443015e-02 8.62779482317091e-03 
7.48750000000000e+00 1.66360826480397e-02 8.52430121435720e-03 
7.51250000000000e+00 1.63913310428716e-02 8.42204443971008e-03 
7.53750000000000e+00 1.61491358434973e-02 8.32100169458124e-03 
7.56250000000000e+00 1.59094714291726e-02 8.22114777622341e-03 
7.58750000000000e+00 1.56723126582363e-02 8.12246686563233e-03 
7.61250000000000e+00 1.54376345094826e-02 8.02495236941897e-03 
7.63750000000000e+00 1.52054118025700e-02 7.92859342879840e-03 
7.66250000000000e+00 1.49756194247898e-02 7.83336960692982e-03 
7.68750000000000e+00 1.47482332002389e-02 7.73926489874154e-03 
7.71250000000000e+00 1.45232290656990e-02 7.64627715360116e-03 
7.73750000000000e+00 1.43007840855598e-02 7.55435317782302e-03 
7.76250000000000e+00 1.40808697940877e-02 7.46352713928355e-03 
