Energy(eV)           EEDF(eV^-(3/2))      Anisotropy(eV^-(3/2))
8.68055555555556e-03 2.12712811950601e-01 -1.86291415673983e-03 
2.60416666666667e-02 2.12740605468631e-01 -8.09162400746430e-04 
4.34027777777778e-02 2.12764930357028e-01 -2.10707524786729e-04 
6.07638888888889e-02 2.12786334950191e-01 1.44383996618146e-04 
7.81250000000000e-02 2.12804562221845e-01 4.08872411001276e-04 
9.54861111111111e-02 2.12819436281854e-01 6.45031740811457e-04 
1.12847222222222e-01 2.12830736269769e-01 8.63247722505328e-04 
1.30208333333333e-01 2.12838287937817e-01 1.07484178207427e-03 
1.47569444444444e-01 2.12841736072337e-01 1.86926789632352e-03 
1.64930555555556e-01 2.12822444923137e-01 3.20104378069286e-03 
1.82291666666667e-01 2.12778194424667e-01 3.91952642784991e-03 
1.99652777777778e-01 2.12727555997107e-01 4.22304441745457e-03 
2.17013888888889e-01 2.12664892458605e-01 4.66407443986368e-03 
2.34375000000000e-01 2.12590292414894e-01 4.89878532024134e-03 
2.51736111111111e-01 2.12510996035131e-01 4.96444158755600e-03 
2.69097222222222e-01 2.12426050622673e-01 6.42984405821923e-03 
2.86458333333333e-01 2.12275770442850e-01 9.21540722767597e-03 
3.03819444444445e-01 2.12056240612349e-01 1.06052191408436e-02 
3.21180555555556e-01 2.11828634525226e-01 1.07600893333707e-02 
3.38541666666667e-01 2.11569713445788e-01 1.09650719367440e-02 
3.55902777777778e-01 2.11316095563329e-01 1.10064272976328e-02 
3.73263888888889e-01 2.11060933181957e-01 1.09678943318522e-02 
3.90625000000000e-01 2.10798680034206e-01 1.24852834062063e-02 
4.07986111111111e-01 2.10451032122549e-01 1.53916447809742e-02 
4.25347222222222e-01 2.10020899432530e-01 1.72731248201468e-02 
4.42708333333333e-01 2.09557846501098e-01 1.74718285469210e-02 
4.60069444444445e-01 2.09008389204861e-01 1.65154396359733e-02 
4.77430555555556e-01 2.08582687073540e-01 1.56120156772222e-02 
4.94791666666667e-01 2.08158607783784e-01 1.55824602173969e-02 
5.12152777777778e-01 2.07727372106695e-01 1.67255814307941e-02 
5.29513888888889e-01 2.07228002714643e-01 1.90613810858744e-02 
5.46875000000000e-01 2.06654063379033e-01 2.06165652038584e-02 
5.64236111111111e-01 2.06056224157950e-01 1.99642439660418e-02 
5.81597222222222e-01 2.05369091267728e-01 1.81985794030054e-02 
5.98958333333333e-01 2.04881849245583e-01 1.70477830769656e-02 
6.16319444444445e-01 2.04394942546343e-01 1.78349620389155e-02 
6.33680555555556e-01 2.03876247129722e-01 1.94656549936101e-02 
6.51041666666667e-01 2.03319796521149e-01 2.06698691312755e-02 
6.68402777777778e-01 2.02759811542841e-01 2.12523126231698e-02 
6.85763888888889e-01 2.02199281455808e-01 2.05568326009252e-02 
7.03125000000000e-01 2.01564504539188e-01 1.89132108648165e-02 
7.20486111111111e-01 2.01120932059040e-01 1.80282463663618e-02 
7.37847222222222e-01 2.00668856977476e-01 1.86528031644159e-02 
7.55208333333333e-01 2.00197040912780e-01 1.93597593496854e-02 
7.72569444444445e-01 1.99712764381240e-01 1.98218835810224e-02 
7.89930555555556e-01 1.99221607877561e-01 1.92775830762136e-02 
8.07291666666667e-01 1.98661186013612e-01 1.77729326522302e-02 
8.24652777777778e-01 1.98208670993663e-01 1.66619824859090e-02 
8.42013888888889e-01 1.97758315369049e-01 1.67403060305675e-02 
8.59375000000000e-01 1.97271557058074e-01 1.72070514957634e-02 
8.76736111111111e-01 1.96740709639196e-01 1.77190928317187e-02 
8.94097222222222e-01 1.96167644250379e-01 1.78769526919201e-02 
9.11458333333334e-01 1.95552107604681e-01 1.73832975453205e-02 
9.28819444444445e-01 1.94943781645895e-01 1.67391131823988e-02 
9.46180555555556e-01 1.94383235477785e-01 1.65929348352257e-02 
9.63541666666667e-01 1.93809759087227e-01 1.68314520677699e-02 
9.80902777777778e-01 1.93219429706506e-01 1.71425943485990e-02 
9.98263888888889e-01 1.92610560051987e-01 1.74135705816852e-02 
1.01562500000000e+00 1.91987827086366e-01 1.74389995437599e-02 
1.03298611111111e+00 1.91346432355070e-01 1.71326197079842e-02 
1.05034722222222e+00 1.90717841165858e-01 1.68446431498214e-02 
1.06770833333333e+00 1.90106581684905e-01 1.68909898213080e-02 
1.08506944444444e+00 1.89482049396837e-01 1.71018287633007e-02 
1.10243055555556e+00 1.88844382475037e-01 1.72892241918280e-02 
1.11979166666667e+00 1.88194976445819e-01 1.74476151542605e-02 
1.13715277777778e+00 1.87534439481945e-01 1.74636902502587e-02 
1.15451388888889e+00 1.86856609126007e-01 1.73521889835697e-02 
1.17187500000000e+00 1.86194172481715e-01 1.73848700902968e-02 
1.18923611111111e+00 1.85519407982060e-01 1.75626767797621e-02 
1.20659722222222e+00 1.84832104253179e-01 1.77287729155063e-02 
1.22395833333333e+00 1.84137739785091e-01 1.78573634310997e-02 
1.24131944444444e+00 1.83436079760723e-01 1.79185726815150e-02 
1.25868055555556e+00 1.82730784520529e-01 1.79601022425829e-02 
1.27604166666667e+00 1.82028056193025e-01 1.80692894568743e-02 
1.29340277777778e+00 1.81318856782596e-01 1.82221195340086e-02 
1.31076388888889e+00 1.80603562459023e-01 1.83695420679647e-02 
1.32812500000000e+00 1.79884615510655e-01 1.85137436141112e-02 
1.34548611111111e+00 1.79161985108585e-01 1.86346773916131e-02 
1.36284722222222e+00 1.78434077284603e-01 1.87331259322860e-02 
1.38020833333333e+00 1.77707850699664e-01 1.88611331474319e-02 
1.39756944444444e+00 1.76977636373036e-01 1.90160519173678e-02 
1.41493055555556e+00 1.76243487461568e-01 1.91693445663345e-02 
1.43229166666667e+00 1.75505577620767e-01 1.93176517147749e-02 
1.44965277777778e+00 1.74764021099871e-01 1.94526737719246e-02 
1.46701388888889e+00 1.74018843745497e-01 1.95773760589335e-02 
1.48437500000000e+00 1.73272232010451e-01 1.97076189852808e-02 
1.50173611111111e+00 1.72522607879135e-01 1.98415379574409e-02 
1.51909722222222e+00 1.71770151697225e-01 1.99721950314209e-02 
1.53645833333333e+00 1.71014982736840e-01 2.00977582216556e-02 
1.55381944444444e+00 1.70256972683600e-01 2.02163574397391e-02 
1.57118055555556e+00 1.69496962063398e-01 2.03339404727021e-02 
1.58854166666667e+00 1.68735039050685e-01 2.04547561825556e-02 
1.60590277777778e+00 1.67970803911514e-01 2.05758661198183e-02 
1.62326388888889e+00 1.67204361356108e-01 2.06949712655190e-02 
1.64062500000000e+00 1.66435787475034e-01 2.08100180622928e-02 
1.65798611111111e+00 1.65665051773309e-01 2.09210161563796e-02 
1.67534722222222e+00 1.64892850966920e-01 2.10321202106673e-02 
1.69270833333333e+00 1.64118902396456e-01 2.11437849587134e-02 
1.71006944444444e+00 1.63343275969217e-01 2.12537900912120e-02 
1.72743055555556e+00 1.62566779425229e-01 2.13615957488804e-02 
1.74479166666667e+00 1.61789532152546e-01 2.14671168025129e-02 
1.76215277777778e+00 1.61011650368359e-01 2.15703948258199e-02 
1.77951388888889e+00 1.60233247972262e-01 2.16714617054897e-02 
1.79687500000000e+00 1.59454436726660e-01 2.17702907458746e-02 
1.81423611111111e+00 1.58675331905152e-01 2.18666422121044e-02 
1.83159722222222e+00 1.57896063703739e-01 2.19602043606108e-02 
1.84895833333333e+00 1.57116764950043e-01 2.20509093521284e-02 
1.86631944444444e+00 1.56337565109962e-01 2.21388323791865e-02 
1.88368055555556e+00 1.55558590359713e-01 2.22240242856494e-02 
1.90104166666667e+00 1.54779963991289e-01 2.23065609058160e-02 
1.91840277777778e+00 1.54001361429456e-01 2.23864847650416e-02 
1.93576388888889e+00 1.53222546469797e-01 2.24638163550842e-02 
1.95312500000000e+00 1.52443628535646e-01 2.25385918996257e-02 
1.97048611111111e+00 1.51664713168258e-01 2.26107565752318e-02 
1.98784722222222e+00 1.50885895954013e-01 2.26801820554006e-02 
2.00520833333333e+00 1.50107291262895e-01 2.27468475738792e-02 
2.02256944444445e+00 1.49329011610132e-01 2.28108076829190e-02 
2.03993055555556e+00 1.48551166052111e-01 2.28720975977235e-02 
2.05729166666667e+00 1.47773861208245e-01 2.29307579664847e-02 
2.07465277777778e+00 1.46997201067681e-01 2.29868336360299e-02 
2.09201388888889e+00 1.46221287324336e-01 2.30403697456550e-02 
2.10937500000000e+00 1.45446183500717e-01 2.30913862675167e-02 
2.12673611111111e+00 1.44671132506215e-01 2.31397664739578e-02 
2.14409722222222e+00 1.43896234008400e-01 2.31854833318722e-02 
2.16145833333333e+00 1.43121585032217e-01 2.32285895389244e-02 
2.17881944444445e+00 1.42347280418609e-01 2.32691265712371e-02 
2.19618055555556e+00 1.41573413278871e-01 2.33070902159285e-02 
2.21354166666667e+00 1.40800024751529e-01 2.33423575556039e-02 
2.23090277777778e+00 1.40027078666413e-01 2.33747447146025e-02 
2.24826388888889e+00 1.39254681581871e-01 2.34041747541436e-02 
2.26562500000000e+00 1.38482937174342e-01 2.34306660614668e-02 
2.28298611111111e+00 1.37711947348685e-01 2.34542599443668e-02 
2.30034722222222e+00 1.36941811680041e-01 2.34750057627013e-02 
2.31770833333333e+00 1.36172671369498e-01 2.34929432822640e-02 
2.33506944444445e+00 1.35404662725132e-01 2.35081104832615e-02 
2.35243055555556e+00 1.34637879526626e-01 2.35205573519894e-02 
2.36979166666667e+00 1.33872413103188e-01 2.35303340713827e-02 
2.38715277777778e+00 1.33108352696960e-01 2.35374910964321e-02 
2.40451388888889e+00 1.32345785094126e-01 2.35420248162711e-02 
2.42187500000000e+00 1.31586289127422e-01 2.35439689458512e-02 
2.43923611111111e+00 1.30830419628404e-01 2.35434166715209e-02 
2.45659722222222e+00 1.30078257072204e-01 2.35404289556866e-02 
2.47395833333333e+00 1.29329879300724e-01 2.35350487078682e-02 
2.49131944444445e+00 1.28585361724305e-01 2.35273185552533e-02 
2.50868055555556e+00 1.27844777191989e-01 2.35173527500601e-02 
2.52604166666667e+00 1.27106028840696e-01 2.35051732364387e-02 
2.54340277777778e+00 1.26369188944542e-01 2.34907101481796e-02 
2.56076388888889e+00 1.25634327901529e-01 2.34740081758845e-02 
2.57812500000000e+00 1.24901514250718e-01 2.34551117408446e-02 
2.59548611111111e+00 1.24170814623771e-01 2.34340741860330e-02 
2.61284722222222e+00 1.23442356213298e-01 2.34109494878930e-02 
2.63020833333333e+00 1.22716400312502e-01 2.33857937696254e-02 
2.64756944444445e+00 1.21993006177498e-01 2.33586657516298e-02 
2.66493055555556e+00 1.21272231270273e-01 2.33296057003461e-02 
2.68229166666667e+00 1.20554131417307e-01 2.32986513868864e-02 
2.69965277777778e+00 1.19838760831603e-01 2.32658547332578e-02 
2.71701388888889e+00 1.19126171898258e-01 2.32312973862460e-02 
2.73437500000000e+00 1.18416413621942e-01 2.31950632490643e-02 
2.75173611111111e+00 1.17709531697919e-01 2.31572050664580e-02 
2.76909722222222e+00 1.17005570370658e-01 2.31177552380528e-02 
2.78645833333333e+00 1.16304572611504e-01 2.30767385232973e-02 
2.80381944444445e+00 1.15606580470008e-01 2.30341819816348e-02 
2.82118055555556e+00 1.14910966535709e-01 2.29901122707587e-02 
2.83854166666667e+00 1.14217516537212e-01 2.29444746186842e-02 
2.85590277777778e+00 1.13526279198614e-01 2.28972074293082e-02 
2.87326388888889e+00 1.12837301763838e-01 2.28483083070057e-02 
2.89062500000000e+00 1.12150630234938e-01 2.27978091267742e-02 
2.90798611111111e+00 1.11466309571748e-01 2.27457490088032e-02 
2.92534722222222e+00 1.10784415834947e-01 2.26921816469441e-02 
2.94270833333333e+00 1.10104991488440e-01 2.26371542028192e-02 
2.96006944444445e+00 1.09428076476718e-01 2.25806969656662e-02 
2.97743055555556e+00 1.08753709722545e-01 2.25228370244165e-02 
2.99479166666667e+00 1.08081929169180e-01 2.24636115486161e-02 
3.01215277777778e+00 1.07412755607852e-01 2.24030804460764e-02 
3.02951388888889e+00 1.06746161169836e-01 2.23413357233792e-02 
3.04687500000000e+00 1.06082171643151e-01 2.22785027629824e-02 
3.06423611111111e+00 1.05420812836931e-01 2.22146865718209e-02 
3.08159722222222e+00 1.04762109258113e-01 2.21499263371268e-02 
3.09895833333333e+00 1.04106084938738e-01 2.20842412413377e-02 
3.11631944444445e+00 1.03452751520900e-01 2.20176597412001e-02 
3.13368055555556e+00 1.02802116585147e-01 2.19502114668795e-02 
3.15104166666667e+00 1.02154201491134e-01 2.18819207958150e-02 
3.16840277777778e+00 1.01509026838613e-01 2.18128096812061e-02 
3.18576388888889e+00 1.00866612484935e-01 2.17429038104568e-02 
3.20312500000000e+00 1.00226977269091e-01 2.16722419484508e-02 
3.22048611111111e+00 9.95908065603467e-02 2.16008537695091e-02 
3.23784722222222e+00 9.89584261976484e-02 2.15287681512670e-02 
3.25520833333333e+00 9.83298499692198e-02 2.14559319651573e-02 
3.27256944444445e+00 9.77050901112678e-02 2.13823164547583e-02 
3.28993055555556e+00 9.70841580890958e-02 2.13079389038213e-02 
3.30729166666667e+00 9.64670647692537e-02 2.12328471602975e-02 
3.32465277777778e+00 9.58523745422744e-02 2.11571619925354e-02 
3.34201388888889e+00 9.52399808731093e-02 2.10808111127937e-02 
3.35937500000000e+00 9.46299026865696e-02 2.10038057842308e-02 
3.37673611111111e+00 9.40221583209349e-02 2.09261652639827e-02 
3.39409722222222e+00 9.34167655755037e-02 2.08479054543018e-02 
3.41145833333333e+00 9.28137389639544e-02 2.07690444578644e-02 
3.42881944444445e+00 9.22130801401627e-02 2.06896354768987e-02 
3.44618055555556e+00 9.16148005201470e-02 2.06097589104270e-02 
3.46354166666667e+00 9.10189115930169e-02 2.05294754052196e-02 
3.48090277777778e+00 9.04254242263512e-02 2.04488109878075e-02 
3.49826388888889e+00 8.98343489965091e-02 2.03677757682873e-02 
3.51562500000000e+00 8.92456867888043e-02 2.02863795859676e-02 
3.53298611111111e+00 8.86594336550739e-02 2.02046323349722e-02 
3.55034722222222e+00 8.80755994748686e-02 2.01225444742774e-02 
3.56770833333333e+00 8.74941937506421e-02 2.00401283798194e-02 
3.58506944444445e+00 8.69152256160095e-02 1.99573992170035e-02 
3.60243055555556e+00 8.63387036224461e-02 1.98743839539541e-02 
3.61979166666667e+00 8.57646050862383e-02 1.97911145148615e-02 
3.63715277777778e+00 8.51929212397057e-02 1.97076115107931e-02 
3.65451388888889e+00 8.46236610663687e-02 1.96239145514763e-02 
3.67187500000000e+00 8.40568293706996e-02 1.95400808231157e-02 
3.68923611111111e+00 8.34924294606817e-02 1.94561379644623e-02 
3.70659722222222e+00 8.29304645354540e-02 1.93720923692171e-02 
3.72395833333333e+00 8.23705764778141e-02 1.92879804152811e-02 
3.74131944444445e+00 8.18127219437727e-02 1.92037751594736e-02 
3.75868055555556e+00 8.12569076431441e-02 1.91194501193811e-02 
3.77604166666667e+00 8.07031410361203e-02 1.90349945500477e-02 
3.79340277777778e+00 8.01514294817543e-02 1.89504220389461e-02 
3.81076388888889e+00 7.96017817178059e-02 1.88658053643705e-02 
3.82812500000000e+00 7.90542158465460e-02 1.87813089710210e-02 
3.84548611111111e+00 7.85087260976699e-02 1.86971536703919e-02 
3.86284722222222e+00 7.79653017869370e-02 1.86135045706996e-02 
3.88020833333333e+00 7.74239299038133e-02 1.85304090577097e-02 
3.89756944444445e+00 7.68845975536137e-02 1.84478621447201e-02 
3.91493055555556e+00 7.63472946648856e-02 1.83658648164184e-02 
3.93229166666667e+00 7.58120129801644e-02 1.82844357322634e-02 
3.94965277777778e+00 7.52787384712168e-02 1.82036301009657e-02 
3.96701388888889e+00 7.47474547210351e-02 1.81235186918030e-02 
3.98437500000000e+00 7.42181434327244e-02 1.80441268921444e-02 
4.00173611111111e+00 7.36907866249285e-02 1.79653366307750e-02 
4.01909722222222e+00 7.31655581402861e-02 1.78868547063307e-02 
4.03645833333333e+00 7.26425787081031e-02 1.78085339955897e-02 
4.05381944444445e+00 7.21218454397562e-02 1.77305154627476e-02 
4.07118055555556e+00 7.16033463450887e-02 1.76529532921791e-02 
4.08854166666667e+00 7.10870671863097e-02 1.75758820316235e-02 
4.10590277777778e+00 7.05729939134765e-02 1.74993280800283e-02 
4.12326388888889e+00 7.00604992476770e-02 1.74233798976762e-02 
4.14062500000000e+00 6.95494557491639e-02 1.73479498552873e-02 
4.15798611111111e+00 6.90398568517474e-02 1.72728884861298e-02 
4.17534722222222e+00 6.85317003763559e-02 1.71981017296271e-02 
4.19270833333333e+00 6.80249828536383e-02 1.71235387835467e-02 
4.21006944444445e+00 6.75197530061474e-02 1.70491364499313e-02 
4.22743055555556e+00 6.70166531885682e-02 1.69748551316960e-02 
4.24479166666667e+00 6.65156770472299e-02 1.69007938937232e-02 
4.26215277777778e+00 6.60168176102295e-02 1.68269728993730e-02 
4.27951388888889e+00 6.55200683887202e-02 1.67533891221871e-02 
4.29687500000000e+00 6.50254229568850e-02 1.66800303762318e-02 
4.31423611111111e+00 6.45328829843953e-02 1.66068551643722e-02 
4.33159722222222e+00 6.40424601284398e-02 1.65338552043927e-02 
4.34895833333333e+00 6.35541488814600e-02 1.64611323369942e-02 
4.36631944444445e+00 6.30679390013158e-02 1.63888040741834e-02 
4.38368055555556e+00 6.25838179282025e-02 1.63169063709918e-02 
4.40104166666667e+00 6.21017732573881e-02 1.62453601496923e-02 
4.41840277777778e+00 6.16217681162295e-02 1.61739688184796e-02 
4.43576388888889e+00 6.11437793518637e-02 1.61026141684320e-02 
4.45312500000000e+00 6.06678060472373e-02 1.60313429479597e-02 
4.47048611111111e+00 6.01938452662114e-02 1.59601922415560e-02 
4.48784722222222e+00 5.97218944763885e-02 1.58891559040038e-02 
4.50520833333333e+00 5.92519511065541e-02 1.58182535722981e-02 
4.52256944444445e+00 5.87839369521628e-02 1.57475442012099e-02 
4.53993055555556e+00 5.83178284653784e-02 1.56771277322763e-02 
4.55729166666667e+00 5.78536166268023e-02 1.56071317636822e-02 
4.57465277777778e+00 5.73912886952390e-02 1.55376200420781e-02 
4.59201388888889e+00 5.69308316529601e-02 1.54685927245281e-02 
4.60937500000000e+00 5.64722328094305e-02 1.54000120515547e-02 
4.62673611111111e+00 5.60154836214811e-02 1.53317959442222e-02 
4.64409722222222e+00 5.55605778018559e-02 1.52637652089992e-02 
4.66145833333333e+00 5.51075159424019e-02 1.51956801008772e-02 
4.67881944444445e+00 5.46563045492680e-02 1.51274359275070e-02 
4.69618055555556e+00 5.42069499029025e-02 1.50590171945792e-02 
4.71354166666667e+00 5.37594504287001e-02 1.49903195237825e-02 
4.73090277777778e+00 5.33137957015402e-02 1.49211911243282e-02 
4.74826388888889e+00 5.28700029379098e-02 1.48515530675973e-02 
4.76562500000000e+00 5.24280897379056e-02 1.47813938553207e-02 
4.78298611111111e+00 5.19880738181218e-02 1.47107208519986e-02 
4.80034722222222e+00 5.15499723442195e-02 1.46395436161283e-02 
4.81770833333333e+00 5.11138222353067e-02 1.45678679801634e-02 
4.83506944444445e+00 5.06796580712488e-02 1.44957264119058e-02 
4.85243055555556e+00 5.02474941802972e-02 1.44231704302823e-02 
4.86979166666667e+00 4.98173439882171e-02 1.43502386332596e-02 
4.88715277777778e+00 4.93892200952807e-02 1.42769512589348e-02 
4.90451388888889e+00 4.89631347426880e-02 1.42033028817691e-02 
4.92187500000000e+00 4.85391295953756e-02 1.41292811356766e-02 
4.93923611111111e+00 4.81172262310723e-02 1.40549168486982e-02 
4.95659722222222e+00 4.76974354583488e-02 1.39802518042377e-02 
4.97395833333333e+00 4.72797672713444e-02 1.39053023509601e-02 
4.99131944444445e+00 4.68642314911024e-02 1.38300781443092e-02 
5.00868055555556e+00 4.64508375316180e-02 1.37546758514877e-02 
5.02604166666667e+00 4.60391285800236e-02 1.36792825333821e-02 
5.04340277777778e+00 4.56291102104088e-02 1.36038705587423e-02 
5.06076388888889e+00 4.52207906152070e-02 1.35283789410568e-02 
5.07812500000000e+00 4.48141790892103e-02 1.34527946411634e-02 
5.09548611111111e+00 4.44092846581517e-02 1.33771252622306e-02 
5.11284722222222e+00 4.40061924838419e-02 1.33013699990522e-02 
5.13020833333333e+00 4.36051506232052e-02 1.32255414926653e-02 
5.14756944444445e+00 4.32061626843406e-02 1.31497203986045e-02 
5.16493055555556e+00 4.28092301721892e-02 1.30739553752350e-02 
5.18229166666667e+00 4.24143537150637e-02 1.29982637921304e-02 
5.19965277777778e+00 4.20215337290945e-02 1.29226619094763e-02 
5.21701388888889e+00 4.16307189385859e-02 1.28472018865076e-02 
5.23437500000000e+00 4.12418526322291e-02 1.27719401346467e-02 
5.25173611111111e+00 4.08549322056724e-02 1.26968906721448e-02 
5.26909722222222e+00 4.04699551989940e-02 1.26220497378797e-02 
5.28645833333333e+00 4.00869192119245e-02 1.25474168030309e-02 
5.30381944444445e+00 3.97058217990367e-02 1.24729863056591e-02 
5.32118055555556e+00 3.93265119241712e-02 1.23987654739714e-02 
5.33854166666667e+00 3.89489317036190e-02 1.23247443917938e-02 
5.35590277777778e+00 3.85730815161894e-02 1.22509097349830e-02 
5.37326388888889e+00 3.81989621737230e-02 1.21772532110762e-02 
5.39062500000000e+00 3.78265745124225e-02 1.21037766613430e-02 
