Energy(eV)           EEDF(eV^-(3/2))      Anisotropy(eV^-(3/2))
8.68055555555556e-03 9.49348020618462e-01 3.98892088167216e-02 
2.60416666666667e-02 9.46445806315568e-01 3.24595982460489e-02 
4.34027777777778e-02 9.41279083458952e-01 6.26494817828876e-02 
6.07638888888889e-02 9.34628100374517e-01 8.72432133181111e-02 
7.81250000000000e-02 9.27354834845679e-01 1.04450619322175e-01 
9.54861111111111e-02 9.19781405153695e-01 1.15661412172956e-01 
1.12847222222222e-01 9.12325615858780e-01 1.22403783745680e-01 
1.30208333333333e-01 9.05075371235131e-01 1.26451516209405e-01 
1.47569444444444e-01 8.97892168840271e-01 1.29385759417666e-01 
1.64930555555556e-01 8.90869557500306e-01 1.31771695369488e-01 
1.82291666666667e-01 8.84171147760451e-01 1.33003254838218e-01 
1.99652777777778e-01 8.77731113024630e-01 1.33516606301639e-01 
2.17013888888889e-01 8.71474101112461e-01 1.34044960344395e-01 
2.34375000000000e-01 8.65324672505463e-01 1.34424422305778e-01 
2.51736111111111e-01 8.59292469456257e-01 1.34685692823410e-01 
2.69097222222222e-01 8.53424326089599e-01 1.35789208372300e-01 
2.86458333333333e-01 8.47671277979791e-01 1.37410531467505e-01 
3.03819444444445e-01 8.42064667861525e-01 1.36792656717918e-01 
3.21180555555556e-01 8.36661606616829e-01 1.33487096984559e-01 
3.38541666666667e-01 8.31443586040026e-01 1.29343654515043e-01 
3.55902777777778e-01 8.26488167185768e-01 1.25026706935829e-01 
3.73263888888889e-01 8.21731223347816e-01 1.20813190910014e-01 
3.90625000000000e-01 8.17149537771510e-01 1.17818362172098e-01 
4.07986111111111e-01 8.12656787875057e-01 1.16023370621704e-01 
4.25347222222222e-01 8.08235095655682e-01 1.13864818866765e-01 
4.42708333333333e-01 8.03919061463049e-01 1.10889835621769e-01 
4.60069444444445e-01 7.99632617793945e-01 1.07459928186017e-01 
4.77430555555556e-01 7.95583861801509e-01 1.04423916371128e-01 
4.94791666666667e-01 7.91635775771510e-01 1.02238075921279e-01 
5.12152777777778e-01 7.87766371756899e-01 1.01074696895624e-01 
5.29513888888889e-01 7.83919879328027e-01 1.00925927787777e-01 
5.46875000000000e-01 7.80080389827987e-01 1.00530175542954e-01 
5.64236111111111e-01 7.76280321861409e-01 9.90206666825957e-02 
5.81597222222222e-01 7.72448275146034e-01 9.69139690131099e-02 
5.98958333333333e-01 7.68825679080585e-01 9.56340588305621e-02 
6.16319444444445e-01 7.65231102522251e-01 9.57839642815050e-02 
6.33680555555556e-01 7.61630010799551e-01 9.66901768442049e-02 
6.51041666666667e-01 7.58007477912365e-01 9.75572942066642e-02 
6.68402777777778e-01 7.54381864541709e-01 9.82815650506191e-02 
6.85763888888889e-01 7.50745871583117e-01 9.85085682632206e-02 
7.03125000000000e-01 7.47027048065727e-01 9.82260099470044e-02 
7.20486111111111e-01 7.43435638264355e-01 9.88929532647786e-02 
7.37847222222222e-01 7.39783361009899e-01 1.00706592329514e-01 
7.55208333333333e-01 7.36049959545600e-01 1.02863406742565e-01 
7.72569444444445e-01 7.32229986287902e-01 1.05179431726948e-01 
7.89930555555556e-01 7.28316625412858e-01 1.07231389926214e-01 
8.07291666666667e-01 7.24232072300334e-01 1.08887632472030e-01 
8.24652777777778e-01 7.20134137157894e-01 1.11268229851176e-01 
8.42013888888889e-01 7.15911857446791e-01 1.14704063095923e-01 
8.59375000000000e-01 7.11512106932929e-01 1.18721116747712e-01 
8.76736111111111e-01 7.06914435380584e-01 1.23112134580481e-01 
8.94097222222222e-01 7.02105583066368e-01 1.27644774019022e-01 
9.11458333333334e-01 6.97058496149843e-01 1.32117344776701e-01 
9.28819444444445e-01 6.91799098948210e-01 1.36810050206845e-01 
9.46180555555556e-01 6.86379371904179e-01 1.42162530747341e-01 
9.63541666666667e-01 6.80718527136475e-01 1.48021241445946e-01 
9.80902777777778e-01 6.74801857499146e-01 1.54175093413235e-01 
9.98263888888889e-01 6.68617496479195e-01 1.60527823845668e-01 
1.01562500000000e+00 6.62125620742116e-01 1.66903957292421e-01 
1.03298611111111e+00 6.55245952248090e-01 1.73149850816040e-01 
1.05034722222222e+00 6.48011500225940e-01 1.79449346605657e-01 
1.06770833333333e+00 6.40435624032262e-01 1.85942242043796e-01 
1.08506944444444e+00 6.32468624112023e-01 1.92463036143222e-01 
1.10243055555556e+00 6.24103459766556e-01 1.98878322704718e-01 
1.11979166666667e+00 6.15344362644149e-01 2.05166486313669e-01 
1.13715277777778e+00 6.06190436747279e-01 2.11240737471730e-01 
1.15451388888889e+00 5.96611343439998e-01 2.17055713923810e-01 
1.17187500000000e+00 5.86673366175495e-01 2.22756999322329e-01 
1.18923611111111e+00 5.76334679119989e-01 2.28265593029185e-01 
1.20659722222222e+00 5.65596349793090e-01 2.33450888047415e-01 
1.22395833333333e+00 5.54381445093704e-01 2.38206711468841e-01 
1.24131944444444e+00 5.42678637491306e-01 2.42433885212884e-01 
1.25868055555556e+00 5.30498716483711e-01 2.46066397679909e-01 
1.27604166666667e+00 5.17875210978801e-01 2.49051249188528e-01 
1.29340277777778e+00 5.04814793943270e-01 2.51276193514667e-01 
1.31076388888889e+00 4.91338813354612e-01 2.52639447636811e-01 
1.32812500000000e+00 4.77441882356158e-01 2.53069324694289e-01 
1.34548611111111e+00 4.63161002869607e-01 2.52512785420136e-01 
1.36284722222222e+00 4.48534017866056e-01 2.50954460528371e-01 
1.38020833333333e+00 4.33627163957627e-01 2.48418388822115e-01 
1.39756944444444e+00 4.18482726100344e-01 2.44931328555445e-01 
1.41493055555556e+00 4.03158652929332e-01 2.40532909570798e-01 
1.43229166666667e+00 3.87713654988113e-01 2.35293198888022e-01 
1.44965277777778e+00 3.72205790994727e-01 2.29300753001338e-01 
1.46701388888889e+00 3.56701435041462e-01 2.22662751633423e-01 
1.48437500000000e+00 3.41261412699300e-01 2.15503488614185e-01 
1.50173611111111e+00 3.25949054537681e-01 2.07959895311888e-01 
1.51909722222222e+00 3.10891824720619e-01 2.00145998839628e-01 
1.53645833333333e+00 2.96179196555506e-01 1.92187147500220e-01 
1.55381944444444e+00 2.81859085954742e-01 1.84206111622396e-01 
1.57118055555556e+00 2.67957851398539e-01 1.76306987967582e-01 
1.58854166666667e+00 2.54504547630960e-01 1.68575282406306e-01 
1.60590277777778e+00 2.41516809741996e-01 1.61082726065019e-01 
1.62326388888889e+00 2.29052968134983e-01 1.53850941105812e-01 
1.64062500000000e+00 2.17122359876012e-01 1.46899893857152e-01 
1.65798611111111e+00 2.05709888828215e-01 1.40227967259070e-01 
1.67534722222222e+00 1.94798583794381e-01 1.33820804204249e-01 
1.69270833333333e+00 1.84373247092418e-01 1.27654050799050e-01 
1.71006944444444e+00 1.74413329986900e-01 1.21710414129023e-01 
1.72743055555556e+00 1.64970249514301e-01 1.15941172177532e-01 
1.74479166666667e+00 1.56016661711378e-01 1.10331110182207e-01 
1.76215277777778e+00 1.47530351899430e-01 1.04861507955303e-01 
1.77951388888889e+00 1.39493409686738e-01 9.95268208284513e-02 
1.79687500000000e+00 1.31888062896294e-01 9.43319923082883e-02 
1.81423611111111e+00 1.24698796875328e-01 8.92953505735167e-02 
1.83159722222222e+00 1.17913750749007e-01 8.44396583379087e-02 
1.84895833333333e+00 1.11515262530785e-01 7.97918050800438e-02 
1.86631944444444e+00 1.05490078819815e-01 7.53773052090942e-02 
1.88368055555556e+00 9.98215229793964e-02 7.12155523862565e-02 
1.90104166666667e+00 9.44920785969944e-02 6.73214745838058e-02 
1.91840277777778e+00 8.95101957565334e-02 6.36916176360900e-02 
1.93576388888889e+00 8.48726367192644e-02 6.03140800485315e-02 
1.95312500000000e+00 8.05562588061568e-02 5.71734562791371e-02 
1.97048611111111e+00 7.65417251393712e-02 5.42456569219074e-02 
1.98784722222222e+00 7.28065989423678e-02 5.15087850355732e-02 
2.00520833333333e+00 6.93348300345211e-02 4.89419418381425e-02 
2.02256944444445e+00 6.61063802577052e-02 4.65286886002546e-02 
2.03993055555556e+00 6.31028984516473e-02 4.42535576679179e-02 
2.05729166666667e+00 6.03075747380549e-02 4.21060512361916e-02 
2.07465277777778e+00 5.77029850189165e-02 4.00777649628902e-02 
2.09201388888889e+00 5.52725967054169e-02 3.81599467501497e-02 
2.10937500000000e+00 5.30024828016423e-02 3.63388280748228e-02 
2.12673611111111e+00 5.08574208047222e-02 3.46150401268636e-02 
2.14409722222222e+00 4.88299408495935e-02 3.29760610376273e-02 
2.16145833333333e+00 4.69137558593910e-02 3.14145684548644e-02 
2.17881944444445e+00 4.51021428184584e-02 2.99260328489172e-02 
2.19618055555556e+00 4.33938566403423e-02 2.85068021385440e-02 
2.21354166666667e+00 4.17829794217696e-02 2.71572398943625e-02 
2.23090277777778e+00 4.02627180861888e-02 2.58794370782131e-02 
2.24826388888889e+00 3.88306897949603e-02 2.46732641193512e-02 
2.26562500000000e+00 3.74820199154715e-02 2.35395635856648e-02 
2.28298611111111e+00 3.62122009734794e-02 2.24788838431965e-02 
2.30034722222222e+00 3.50160023218709e-02 2.14883117214809e-02 
2.31770833333333e+00 3.38854920671072e-02 2.05630130888761e-02 
2.33506944444445e+00 3.28155303321829e-02 1.96951230918404e-02 
2.35243055555556e+00 3.17993529284235e-02 1.88774447193165e-02 
2.36979166666667e+00 3.08326907736924e-02 1.81037395401081e-02 
2.38715277777778e+00 2.99119663577772e-02 1.73687334979446e-02 
2.40451388888889e+00 2.90340431437925e-02 1.66673950182451e-02 
2.42187500000000e+00 2.81975872198661e-02 1.59970997208344e-02 
2.43923611111111e+00 2.74015896684730e-02 1.53559635098657e-02 
2.45659722222222e+00 2.66444167025519e-02 1.47450618660371e-02 
2.47395833333333e+00 2.59265809636077e-02 1.41662759176683e-02 
2.49131944444445e+00 2.52454509627238e-02 1.36213738076192e-02 
2.50868055555556e+00 2.45998402406282e-02 1.31096738170767e-02 
2.52604166666667e+00 2.39842886017512e-02 1.26315023395512e-02 
2.54340277777778e+00 2.33960194978958e-02 1.21835016669331e-02 
2.56076388888889e+00 2.28330931078470e-02 1.17637480096282e-02 
2.57812500000000e+00 2.22932226643034e-02 1.13680986830095e-02 
2.59548611111111e+00 2.17733208232133e-02 1.09918066606056e-02 
2.61284722222222e+00 2.12730251188775e-02 1.06309940817418e-02 
2.63020833333333e+00 2.07902936548493e-02 1.02828135375314e-02 
2.64756944444445e+00 2.03248647815841e-02 9.94536752342580e-03 
2.66493055555556e+00 1.98768162635605e-02 9.61891164142341e-03 
2.68229166666667e+00 1.94453358763537e-02 9.30374540359647e-03 
2.69965277777778e+00 1.90305792134257e-02 9.00172120756615e-03 
2.71701388888889e+00 1.86325570267901e-02 8.71468615506541e-03 
2.73437500000000e+00 1.82497914800743e-02 8.44353126861064e-03 
2.75173611111111e+00 1.78822031833698e-02 8.18861999893682e-03 
2.76909722222222e+00 1.75283163330173e-02 7.94921088246739e-03 
2.78645833333333e+00 1.71867928352998e-02 7.72310389060773e-03 
2.80381944444445e+00 1.68569863725857e-02 7.50844114001903e-03 
2.82118055555556e+00 1.65370560383525e-02 7.30307215966807e-03 
2.83854166666667e+00 1.62262025303436e-02 7.10503090266217e-03 
2.85590277777778e+00 1.59244244997040e-02 6.91317097615322e-03 
2.87326388888889e+00 1.56309631416133e-02 6.72674859167234e-03 
2.89062500000000e+00 1.53460244728520e-02 6.54596583139121e-03 
2.90798611111111e+00 1.50695215608336e-02 6.37166539017862e-03 
2.92534722222222e+00 1.48010962089797e-02 6.20442793158801e-03 
2.94270833333333e+00 1.45407477962610e-02 6.04505280598369e-03 
2.96006944444445e+00 1.42880286461499e-02 5.89380426284468e-03 
2.97743055555556e+00 1.40423870739747e-02 5.75044874450084e-03 
2.99479166666667e+00 1.38035368087901e-02 5.61447632084054e-03 
3.01215277777778e+00 1.35706997649418e-02 5.48486882956620e-03 
3.02951388888889e+00 1.33435656239948e-02 5.36056197393285e-03 
3.04687500000000e+00 1.31218663183517e-02 5.24069679011006e-03 
3.06423611111111e+00 1.29052082933614e-02 5.12436454282628e-03 
3.08159722222222e+00 1.26935082345654e-02 5.01106687857988e-03 
3.09895833333333e+00 1.24866985801877e-02 4.90037517622777e-03 
3.11631944444445e+00 1.22846466690737e-02 4.79223324927945e-03 
3.13368055555556e+00 1.20874224282520e-02 4.68740965636896e-03 
3.15104166666667e+00 1.18948579929616e-02 4.58655010119421e-03 
3.16840277777778e+00 1.17067641165584e-02 4.48976497531316e-03 
3.18576388888889e+00 1.15230058653605e-02 4.39697540706746e-03 
3.20312500000000e+00 1.13432609095820e-02 4.30790048776307e-03 
3.22048611111111e+00 1.11673710747968e-02 4.22225741915726e-03 
3.23784722222222e+00 1.09951733536608e-02 4.13956593975580e-03 
3.25520833333333e+00 1.08264371005000e-02 4.05893996218114e-03 
3.27256944444445e+00 1.06610852750624e-02 3.97974641935849e-03 
3.28993055555556e+00 1.04990540610525e-02 3.90176322786884e-03 
3.30729166666667e+00 1.03402745609409e-02 3.82498004845493e-03 
3.32465277777778e+00 1.01847217012906e-02 3.74953191748589e-03 
3.34201388888889e+00 1.00323497772724e-02 3.67538998922974e-03 
3.35937500000000e+00 9.88309443888439e-03 3.60248324447821e-03 
3.37673611111111e+00 9.73693698891270e-03 3.53086101874646e-03 
3.39409722222222e+00 9.59379107318878e-03 3.46048271782596e-03 
3.41145833333333e+00 9.45357177048115e-03 3.39134865633865e-03 
3.42881944444445e+00 9.31621470693491e-03 3.32353485903822e-03 
3.44618055555556e+00 9.18160471398399e-03 3.25689731135040e-03 
3.46354166666667e+00 9.04968629099591e-03 3.19123733532039e-03 
3.48090277777778e+00 8.92042212221841e-03 3.12646767074893e-03 
3.49826388888889e+00 8.79376193851924e-03 3.06252021548550e-03 
3.51562500000000e+00 8.66968195931612e-03 2.99941064982222e-03 
3.53298611111111e+00 8.54816435978472e-03 2.93719121815659e-03 
3.55034722222222e+00 8.42917100008649e-03 2.87583238557752e-03 
3.56770833333333e+00 8.31265862303654e-03 2.81550492892606e-03 
3.58506944444445e+00 8.19864357620276e-03 2.75672440251110e-03 
3.60243055555556e+00 8.08709486244362e-03 2.70002993153731e-03 
3.61979166666667e+00 7.97796492831103e-03 2.64561093463960e-03 
3.63715277777778e+00 7.87111252233760e-03 2.59317212223991e-03 
3.65451388888889e+00 7.76652840619570e-03 2.54218370425546e-03 
3.67187500000000e+00 7.66417614895783e-03 2.49242016542043e-03 
3.68923611111111e+00 7.56399489033995e-03 2.44381906272222e-03 
3.70659722222222e+00 7.46592851341376e-03 2.39637987922935e-03 
3.72395833333333e+00 7.36993490673232e-03 2.35018575184976e-03 
3.74131944444445e+00 7.27594481646296e-03 2.30522773653515e-03 
3.75868055555556e+00 7.18390169775026e-03 2.26134296143527e-03 
3.77604166666667e+00 7.09376475981107e-03 2.21838881208936e-03 
3.79340277777778e+00 7.00548686026104e-03 2.17630470521859e-03 
3.81076388888889e+00 6.91901633986833e-03 2.13508163483626e-03 
3.82812500000000e+00 6.83431747032468e-03 2.09472255369399e-03 
3.84548611111111e+00 6.75134361161640e-03 2.05519103647771e-03 
3.86284722222222e+00 6.67005298008660e-03 2.01643186522659e-03 
3.88020833333333e+00 6.59041371702032e-03 1.97840698392071e-03 
3.89756944444445e+00 6.51237531479011e-03 1.94111828637620e-03 
3.91493055555556e+00 6.43590800093598e-03 1.90464586266971e-03 
3.93229166666667e+00 6.36098897167124e-03 1.86907123151121e-03 
3.94965277777778e+00 6.28757712859364e-03 1.83440584987203e-03 
3.96701388888889e+00 6.21563175901398e-03 1.80066591874987e-03 
3.98437500000000e+00 6.14515202665498e-03 1.76784945297729e-03 
4.00173611111111e+00 6.07610670079889e-03 1.73593989552845e-03 
4.01909722222222e+00 6.00840993049292e-03 1.70495134932947e-03 
4.03645833333333e+00 5.94199119181565e-03 1.67488253849773e-03 
4.05381944444445e+00 5.87680994331924e-03 1.64570490460067e-03 
4.07118055555556e+00 5.81285839380346e-03 1.61738278432631e-03 
4.08854166666667e+00 5.75011245986834e-03 1.58990319484329e-03 
4.10590277777778e+00 5.68853400976352e-03 1.56325110038759e-03 
4.12326388888889e+00 5.62807282015046e-03 1.53739057963968e-03 
4.14062500000000e+00 5.56869401935605e-03 1.51226838522750e-03 
4.15798611111111e+00 5.51036689782943e-03 1.48783291727470e-03 
4.17534722222222e+00 5.45306260842294e-03 1.46405831923194e-03 
4.19270833333333e+00 5.39675161530338e-03 1.44094279616551e-03 
4.21006944444445e+00 5.34140606444586e-03 1.41849393023951e-03 
4.22743055555556e+00 5.28701030363813e-03 1.39672039816814e-03 
4.24479166666667e+00 5.23353329573547e-03 1.37561860955613e-03 
4.26215277777778e+00 5.18094317508135e-03 1.35518074904472e-03 
4.27951388888889e+00 5.12921130795448e-03 1.33541240645399e-03 
4.29687500000000e+00 5.07830885433807e-03 1.31631191263210e-03 
4.31423611111111e+00 5.02820763626095e-03 1.29786444984144e-03 
4.33159722222222e+00 4.97888055282304e-03 1.28005404136564e-03 
4.34895833333333e+00 4.93030135902839e-03 1.26285568536768e-03 
4.36631944444445e+00 4.88244473449915e-03 1.24623255278225e-03 
4.38368055555556e+00 4.83528715106448e-03 1.23015542956146e-03 
4.40104166666667e+00 4.78880560517424e-03 1.21460319523219e-03 
4.41840277777778e+00 4.74297724696865e-03 1.19955107440271e-03 
4.43576388888889e+00 4.69778812776003e-03 1.18497543269549e-03 
4.45312500000000e+00 4.65323205375190e-03 1.17086056350514e-03 
4.47048611111111e+00 4.60928918566862e-03 1.15719689402626e-03 
4.48784722222222e+00 4.56594036064631e-03 1.14397330172532e-03 
4.50520833333333e+00 4.52316697683968e-03 1.13113982122248e-03 
4.52256944444445e+00 4.48093974490308e-03 1.11860484946279e-03 
4.53993055555556e+00 4.43929276136809e-03 1.10630861645432e-03 
4.55729166666667e+00 4.39823169730934e-03 1.09425995650749e-03 
4.57465277777778e+00 4.35774393401707e-03 1.08246531602441e-03 
4.59201388888889e+00 4.31781710365448e-03 1.07091793328030e-03 
4.60937500000000e+00 4.27843901845459e-03 1.05960006663410e-03 
4.62673611111111e+00 4.23959550223649e-03 1.04848531999688e-03 
4.64409722222222e+00 4.20127952485776e-03 1.03755531646656e-03 
4.66145833333333e+00 4.16348187564531e-03 1.02680207281095e-03 
4.67881944444445e+00 4.12619343839913e-03 1.01621939904176e-03 
4.69618055555556e+00 4.08940546750195e-03 1.00580252555565e-03 
4.71354166666667e+00 4.05310936145371e-03 9.95545760834053e-04 
4.73090277777778e+00 4.01729674626310e-03 9.85449369641979e-04 
4.74826388888889e+00 3.98195931177321e-03 9.75560971519965e-04 
4.76562500000000e+00 3.94708539941079e-03 9.65972003942299e-04 
4.78298611111111e+00 3.91266028801694e-03 9.56736895581258e-04 
4.80034722222222e+00 3.87866873104594e-03 9.47858411490975e-04 
4.81770833333333e+00 3.84509607859130e-03 9.39331965941691e-04 
4.83506944444445e+00 3.81192821671911e-03 9.31160228008285e-04 
4.85243055555556e+00 3.77915494194118e-03 9.23344866446648e-04 
4.86979166666667e+00 3.74676171585444e-03 9.15881772704718e-04 
4.88715277777778e+00 3.71473427532308e-03 9.08763164798201e-04 
4.90451388888889e+00 3.68305888880509e-03 9.01947141366875e-04 
4.92187500000000e+00 3.65171364983236e-03 8.95350441452606e-04 
4.93923611111111e+00 3.62068765209821e-03 8.88914025069289e-04 
4.95659722222222e+00 3.58997542968040e-03 8.82624090004075e-04 
4.97395833333333e+00 3.55957058399095e-03 8.76477584982336e-04 
4.99131944444445e+00 3.52946689197547e-03 8.70471476181577e-04 
5.00868055555556e+00 3.49965817465894e-03 8.64604087884629e-04 
5.02604166666667e+00 3.47012247923945e-03 8.58883231204884e-04 
5.04340277777778e+00 3.44085309171900e-03 8.53344561389831e-04 
5.06076388888889e+00 3.41183986451880e-03 8.48034676620055e-04 
5.07812500000000e+00 3.38306936995188e-03 8.42952111824883e-04 
5.09548611111111e+00 3.35453093760795e-03 8.38061892055448e-04 
5.11284722222222e+00 3.32621606620701e-03 8.33314179296942e-04 
5.13020833333333e+00 3.29811459916862e-03 8.28653590342694e-04 
5.14756944444445e+00 3.27022374548615e-03 8.24056246965877e-04 
5.16493055555556e+00 3.24254244003585e-03 8.19521525939014e-04 
5.18229166666667e+00 3.21507371465076e-03 8.15048117755959e-04 
5.19965277777778e+00 3.18781480145489e-03 8.10633236352149e-04 
5.21701388888889e+00 3.16076180916491e-03 8.06269456483469e-04 
5.23437500000000e+00 3.13391113788731e-03 8.01949419631230e-04 
5.25173611111111e+00 3.10726072142095e-03 7.97669989013034e-04 
5.26909722222222e+00 3.08080856532876e-03 7.93430326011416e-04 
5.28645833333333e+00 3.05455314540322e-03 7.89229682493386e-04 
5.30381944444445e+00 3.02849273655978e-03 7.85067360482229e-04 
5.32118055555556e+00 3.00262399163053e-03 7.80942854623887e-04 
5.33854166666667e+00 2.97694447527880e-03 7.76855496634487e-04 
5.35590277777778e+00 2.95145237860227e-03 7.72804542945873e-04 
5.37326388888889e+00 2.92614590856858e-03 7.68789244052179e-04 
5.39062500000000e+00 2.90102329934116e-03 7.64808911957391e-04 
