Energy(eV)           EEDF(eV^-(3/2))      Anisotropy(eV^-(3/2))
1.50000000000000e-02 4.76239141132287e-01 7.96428269719801e-03 
4.50000000000000e-02 4.76034018434214e-01 6.26137162195698e-03 
7.50000000000000e-02 4.75678233121350e-01 1.12899541803742e-02 
1.05000000000000e-01 4.75204195902252e-01 1.48084031662957e-02 
1.35000000000000e-01 4.74667567487453e-01 1.70723246503587e-02 
1.65000000000000e-01 4.74063399305928e-01 1.86738798076602e-02 
1.95000000000000e-01 4.73431251961993e-01 1.97621911563877e-02 
2.25000000000000e-01 4.72772049250789e-01 2.05849819368132e-02 
2.55000000000000e-01 4.72078079847731e-01 2.17255074035394e-02 
2.85000000000000e-01 4.71334134663160e-01 2.30037906313141e-02 
3.15000000000000e-01 4.70556645190978e-01 2.34356332736818e-02 
3.45000000000000e-01 4.69768660946863e-01 2.31535386692319e-02 
3.75000000000000e-01 4.68986273349724e-01 2.33035937143947e-02 
4.05000000000000e-01 4.68165649280095e-01 2.40320468159804e-02 
4.35000000000000e-01 4.67301626305945e-01 2.42328130391248e-02 
4.65000000000000e-01 4.66416900336987e-01 2.40119993754529e-02 
4.95000000000000e-01 4.65537655005922e-01 2.47119143628244e-02 
5.25000000000000e-01 4.64591807749716e-01 2.62999297856680e-02 
5.55000000000000e-01 4.63576764326112e-01 2.73636949462506e-02 
5.85000000000000e-01 4.62509791050427e-01 2.79708110877189e-02 
6.15000000000000e-01 4.61437444088743e-01 2.95229741002501e-02 
6.45000000000000e-01 4.60278434088999e-01 3.19878061194829e-02 
6.75000000000000e-01 4.59017609056082e-01 3.43656016060802e-02 
7.05000000000000e-01 4.57635614423609e-01 3.66416192972338e-02 
7.35000000000000e-01 4.56190999980996e-01 3.98693138325119e-02 
7.65000000000000e-01 4.54587614665630e-01 4.40375799629308e-02 
7.95000000000000e-01 4.52798928800264e-01 4.86451333480542e-02 
8.25000000000000e-01 4.50784944281126e-01 5.35355184424146e-02 
8.55000000000000e-01 4.48555926874355e-01 5.90939543573190e-02 
8.85000000000000e-01 4.46048274982749e-01 6.53351260962060e-02 
9.15000000000000e-01 4.43231358504802e-01 7.20781318670863e-02 
9.45000000000000e-01 4.40096902833085e-01 7.93078894778129e-02 
9.75000000000000e-01 4.36618736821894e-01 8.69448599063213e-02 
1.00500000000000e+00 4.32776023875304e-01 9.48297709236768e-02 
1.03500000000000e+00 4.28500080070978e-01 1.02753098983120e-01 
1.06500000000000e+00 4.23745692317479e-01 1.10639035083905e-01 
1.09500000000000e+00 4.18487941215172e-01 1.18409966253773e-01 
1.12500000000000e+00 4.12714680605202e-01 1.25971630490131e-01 
1.15500000000000e+00 4.06401589325066e-01 1.33335376674878e-01 
1.18500000000000e+00 3.99573261055456e-01 1.40660015033883e-01 
1.21500000000000e+00 3.92178398553766e-01 1.47878998388340e-01 
1.24500000000000e+00 3.84071035329439e-01 1.54759070302309e-01 
1.27500000000000e+00 3.75224490206386e-01 1.61092964924231e-01 
1.30500000000000e+00 3.65625738344917e-01 1.66549240032678e-01 
1.33500000000000e+00 3.55242814240577e-01 1.70770466402737e-01 
1.36500000000000e+00 3.44081127797401e-01 1.73459578538990e-01 
1.39500000000000e+00 3.32209518370161e-01 1.74423079333554e-01 
1.42500000000000e+00 3.19699601478927e-01 1.73584307950168e-01 
1.45500000000000e+00 3.06656513607017e-01 1.71019793821149e-01 
1.48500000000000e+00 2.93208627411431e-01 1.66969841691328e-01 
1.51500000000000e+00 2.79495912015277e-01 1.61816335464361e-01 
1.54500000000000e+00 2.65847019093123e-01 1.55936418399560e-01 
1.57500000000000e+00 2.52381575270742e-01 1.49743396286057e-01 
1.60500000000000e+00 2.39196307773073e-01 1.43554572262059e-01 
1.63500000000000e+00 2.26432740268949e-01 1.37541869686004e-01 
1.66500000000000e+00 2.14161336814035e-01 1.31758198641473e-01 
1.69500000000000e+00 2.02374524473028e-01 1.26151039807506e-01 
1.72500000000000e+00 1.91103583040065e-01 1.20578904297416e-01 
1.75500000000000e+00 1.80424829599181e-01 1.14866016451144e-01 
1.78500000000000e+00 1.70326040370997e-01 1.08936217035737e-01 
1.81500000000000e+00 1.60809258806452e-01 1.02819332191639e-01 
1.84500000000000e+00 1.51880263793045e-01 9.66688215495598e-02 
1.87500000000000e+00 1.43545853921800e-01 9.07089170624943e-02 
1.90500000000000e+00 1.35788919328932e-01 8.51631668304564e-02 
1.93500000000000e+00 1.28664713978064e-01 8.01303217085121e-02 
1.96500000000000e+00 1.22165764013492e-01 7.56236251001102e-02 
1.99500000000000e+00 1.16243646387550e-01 7.15585152297025e-02 
2.02500000000000e+00 1.10855716654295e-01 6.77969805203913e-02 
2.05500000000000e+00 1.05950878747113e-01 6.42208149229447e-02 
2.08500000000000e+00 1.01483439123137e-01 6.07651912979813e-02 
2.11500000000000e+00 9.74060439133122e-02 5.74110731568795e-02 
2.14500000000000e+00 9.36093318127889e-02 5.42179712549635e-02 
2.17500000000000e+00 9.00765714273887e-02 5.12076234266659e-02 
2.20500000000000e+00 8.67979596224378e-02 4.84033396312281e-02 
2.23500000000000e+00 8.37560909616156e-02 4.58123656015019e-02 
2.26500000000000e+00 8.09409356921618e-02 4.34227934701672e-02 
2.29500000000000e+00 7.83411002566081e-02 4.12090176409751e-02 
2.32500000000000e+00 7.59319839659331e-02 3.91419495681933e-02 
2.35500000000000e+00 7.36898222435167e-02 3.72002780587479e-02 
2.38500000000000e+00 7.15922090893990e-02 3.53715167347713e-02 
2.41500000000000e+00 6.96225279626415e-02 3.36526359373937e-02 
2.44500000000000e+00 6.77789907713660e-02 3.20476311400258e-02 
2.47500000000000e+00 6.60586350751134e-02 3.05579435886156e-02 
2.50500000000000e+00 6.44585511718443e-02 2.91813509288623e-02 
2.53500000000000e+00 6.29658998434047e-02 2.79174794106822e-02 
2.56500000000000e+00 6.15609928614166e-02 2.67516251132271e-02 
2.59500000000000e+00 6.02313751706561e-02 2.56649038953595e-02 
2.62500000000000e+00 5.89679221158272e-02 2.46404870532340e-02 
2.65500000000000e+00 5.77619941987529e-02 2.36653486310715e-02 
2.68500000000000e+00 5.66151757704789e-02 2.27416552135607e-02 
2.71500000000000e+00 5.55286092037758e-02 2.18786020625151e-02 
2.74500000000000e+00 5.44992895961464e-02 2.10820998271553e-02 
2.77500000000000e+00 5.35249904133372e-02 2.03523709123761e-02 
2.80500000000000e+00 5.25972329923361e-02 1.96780808015773e-02 
2.83500000000000e+00 5.17068965146954e-02 1.90452828566714e-02 
2.86500000000000e+00 5.08507835283103e-02 1.84457926749781e-02 
2.89500000000000e+00 5.00261455389571e-02 1.78765525946402e-02 
2.92500000000000e+00 4.92336923429551e-02 1.73419157632929e-02 
2.95500000000000e+00 4.84735945158321e-02 1.68477999981021e-02 
2.98500000000000e+00 4.77425368597010e-02 1.63935886647558e-02 
3.01500000000000e+00 4.70378718141770e-02 1.59744973554794e-02 
3.04500000000000e+00 4.63560969924747e-02 1.55823430927892e-02 
3.07500000000000e+00 4.56943245660660e-02 1.52096717891796e-02 
3.10500000000000e+00 4.50524043004547e-02 1.48546504202701e-02 
3.13500000000000e+00 4.44296503026708e-02 1.45181396469883e-02 
3.16500000000000e+00 4.38258822992092e-02 1.42025127032631e-02 
3.19500000000000e+00 4.32403381726907e-02 1.39095879930724e-02 
3.22500000000000e+00 4.26708364724803e-02 1.36368342422906e-02 
3.25500000000000e+00 4.21161327242131e-02 1.33794847117444e-02 
3.28500000000000e+00 4.15749461589188e-02 1.31330770188300e-02 
3.31500000000000e+00 4.10466183558520e-02 1.28954493714656e-02 
3.34500000000000e+00 4.05309221319744e-02 1.26674462027048e-02 
3.37500000000000e+00 4.00274053809668e-02 1.24497193454901e-02 
3.40500000000000e+00 3.95355640944197e-02 1.22420866110031e-02 
3.43500000000000e+00 3.90546851424633e-02 1.20435034180261e-02 
3.46500000000000e+00 3.85839044732116e-02 1.18519674845350e-02 
3.49500000000000e+00 3.81227964096703e-02 1.16659848651024e-02 
3.52500000000000e+00 3.76710601843027e-02 1.14852723537239e-02 
3.55500000000000e+00 3.72285502227917e-02 1.13103943308866e-02 
3.58500000000000e+00 3.67950322206746e-02 1.11426260332452e-02 
3.61500000000000e+00 3.63702633584971e-02 1.09833113882607e-02 
3.64500000000000e+00 3.59537675987248e-02 1.08321374941727e-02 
3.67500000000000e+00 3.55452322540244e-02 1.06870370434914e-02 
3.70500000000000e+00 3.51443713693689e-02 1.05468564654431e-02 
3.73500000000000e+00 3.47509868897800e-02 1.04117142334261e-02 
3.76500000000000e+00 3.43648367914898e-02 1.02816518864610e-02 
3.79500000000000e+00 3.39856948376000e-02 1.01561764665918e-02 
3.82500000000000e+00 3.36132024840789e-02 1.00347241576881e-02 
3.85500000000000e+00 3.32470370730862e-02 9.91683515982874e-03 
3.88500000000000e+00 3.28869701565656e-02 9.80203520821022e-03 
3.91500000000000e+00 3.25327766147266e-02 9.69029241236673e-03 
3.94500000000000e+00 3.21845013205388e-02 9.58199890317528e-03 
3.97500000000000e+00 3.18419533345121e-02 9.47743575634264e-03 
4.00500000000000e+00 3.15051050412198e-02 9.37654057225951e-03 
4.03500000000000e+00 3.11731523439104e-02 9.27927485326748e-03 
4.06500000000000e+00 3.08455955962020e-02 9.18538752414028e-03 
4.09500000000000e+00 3.05224365993078e-02 9.09465644098805e-03 
4.12500000000000e+00 3.02034943195728e-02 9.00701128487496e-03 
4.15500000000000e+00 2.98885664376903e-02 8.92227804897893e-03 
4.18500000000000e+00 2.95775263104340e-02 8.84020733599575e-03 
4.21500000000000e+00 2.92702401539520e-02 8.76070095516968e-03 
4.24500000000000e+00 2.89666742143427e-02 8.68373021868843e-03 
4.27500000000000e+00 2.86666907539742e-02 8.60926933734401e-03 
4.30500000000000e+00 2.83701755755746e-02 8.53730421243406e-03 
4.33500000000000e+00 2.80770292789228e-02 8.46779790899347e-03 
4.36500000000000e+00 2.77871516289790e-02 8.40062780842126e-03 
4.39500000000000e+00 2.75004407401027e-02 8.33560619381674e-03 
4.42500000000000e+00 2.72167827412327e-02 8.27255834002849e-03 
4.45500000000000e+00 2.69361159699881e-02 8.21134970159439e-03 
4.48500000000000e+00 2.66583925939975e-02 8.15188625356354e-03 
4.51500000000000e+00 2.63835343039574e-02 8.09392404760045e-03 
4.54500000000000e+00 2.61115368360948e-02 8.03708168668514e-03 
4.57500000000000e+00 2.58425379536687e-02 7.98120149769568e-03 
4.60500000000000e+00 2.55764823372219e-02 7.92628978739795e-03 
4.63500000000000e+00 2.53133072001832e-02 7.87224471250096e-03 
4.66500000000000e+00 2.50529733140055e-02 7.81894553943685e-03 
4.69500000000000e+00 2.47954377326198e-02 7.76631701502784e-03 
4.72500000000000e+00 2.45406505346843e-02 7.71432939567687e-03 
4.75500000000000e+00 2.42885538451007e-02 7.66313020196993e-03 
4.78500000000000e+00 2.40390990610419e-02 7.61306365305575e-03 
4.81500000000000e+00 2.37922259701286e-02 7.56437301222185e-03 
4.84500000000000e+00 2.35479054701053e-02 7.51710859720726e-03 
4.87500000000000e+00 2.33060959403697e-02 7.47127345191880e-03 
4.90500000000000e+00 2.30667351791603e-02 7.42672420184892e-03 
4.93500000000000e+00 2.28297395485351e-02 7.38313392439171e-03 
4.96500000000000e+00 2.25950584804062e-02 7.34024635159380e-03 
4.99500000000000e+00 2.23626606228750e-02 7.29798431515993e-03 
5.02500000000000e+00 2.21324289177327e-02 7.25633772643287e-03 
5.05500000000000e+00 2.19041631328380e-02 7.21541357906033e-03 
5.08500000000000e+00 2.16778012411647e-02 7.17536759132552e-03 
5.11500000000000e+00 2.14532828543274e-02 7.13608129916689e-03 
5.14500000000000e+00 2.12305484398571e-02 7.09725059272558e-03 
5.17500000000000e+00 2.10095908076305e-02 7.05874597525156e-03 
5.20500000000000e+00 2.07904226453473e-02 7.02054721239016e-03 
5.23500000000000e+00 2.05730120574469e-02 6.98262074706983e-03 
5.26500000000000e+00 2.03573355746815e-02 6.94494288644367e-03 
5.29500000000000e+00 2.01433795540155e-02 6.90750560662051e-03 
5.32500000000000e+00 1.99311227499290e-02 6.87030584407099e-03 
5.35500000000000e+00 1.97205339880788e-02 6.83334179603152e-03 
5.38500000000000e+00 1.95115989559878e-02 6.79660670912275e-03 
5.41500000000000e+00 1.93043037707073e-02 6.76009039364131e-03 
5.44500000000000e+00 1.90986353780737e-02 6.72379253145084e-03 
5.47500000000000e+00 1.88945799811384e-02 6.68773604109913e-03 
5.50500000000000e+00 1.86921232099902e-02 6.65192662173332e-03 
5.53500000000000e+00 1.84912756658038e-02 6.61632562279261e-03 
5.56500000000000e+00 1.82920376584912e-02 6.58090163268195e-03 
5.59500000000000e+00 1.80943970412550e-02 6.54565393245223e-03 
5.62500000000000e+00 1.78983375236081e-02 6.51059542617697e-03 
5.65500000000000e+00 1.77038389772961e-02 6.47574329982470e-03 
5.68500000000000e+00 1.75108887072530e-02 6.44110916548764e-03 
5.71500000000000e+00 1.73194737979514e-02 6.40668768219744e-03 
5.74500000000000e+00 1.71295936673528e-02 6.37245823082904e-03 
5.77500000000000e+00 1.69412365322534e-02 6.33841316624929e-03 
5.80500000000000e+00 1.67543907316464e-02 6.30455439262877e-03 
5.83500000000000e+00 1.65690373437993e-02 6.27088518005914e-03 
5.86500000000000e+00 1.63851611510380e-02 6.23742347546263e-03 
5.89500000000000e+00 1.62027477343934e-02 6.20419213835829e-03 
5.92500000000000e+00 1.60217482785215e-02 6.17120700577401e-03 
5.95500000000000e+00 1.58420972461595e-02 6.13847891695190e-03 
5.98500000000000e+00 1.56637824864446e-02 6.10600670827406e-03 
6.01500000000000e+00 1.54867919601388e-02 6.07369380260167e-03 
6.04500000000000e+00 1.53108226162991e-02 6.04137916164393e-03 
6.07500000000000e+00 1.51358428482951e-02 6.00893753345567e-03 
6.10500000000000e+00 1.49618549288493e-02 5.97636667650421e-03 
6.13500000000000e+00 1.47888904561058e-02 5.94368650575757e-03 
6.16500000000000e+00 1.46169656623089e-02 5.91091679278400e-03 
6.19500000000000e+00 1.44460818460736e-02 5.87806261502943e-03 
6.22500000000000e+00 1.42762402781083e-02 5.84511594974102e-03 
6.25500000000000e+00 1.41074429274065e-02 5.81207237895250e-03 
6.28500000000000e+00 1.39396912245254e-02 5.77894135208698e-03 
6.31500000000000e+00 1.37729860836921e-02 5.74573638457782e-03 
6.34500000000000e+00 1.36073281622374e-02 5.71246210971197e-03 
6.37500000000000e+00 1.34427181819259e-02 5.67911409142908e-03 
6.40500000000000e+00 1.32791570778614e-02 5.64567357007601e-03 
6.43500000000000e+00 1.31166475771190e-02 5.61211056411822e-03 
6.46500000000000e+00 1.29551927582230e-02 5.57841517752128e-03 
6.49500000000000e+00 1.27947950153837e-02 5.54460086013261e-03 
6.52500000000000e+00 1.26354561588339e-02 5.51068970337785e-03 
6.55500000000000e+00 1.24771771287564e-02 5.47670210919771e-03 
6.58500000000000e+00 1.23199587018323e-02 5.44264822033518e-03 
6.61500000000000e+00 1.21638014819905e-02 5.40852652382716e-03 
6.64500000000000e+00 1.20087170174363e-02 5.37432908426476e-03 
6.67500000000000e+00 1.18547061478507e-02 5.34006102549627e-03 
6.70500000000000e+00 1.17017693404361e-02 5.30573889316962e-03 
6.73500000000000e+00 1.15499063192565e-02 5.27138694640541e-03 
6.76500000000000e+00 1.13991160994317e-02 5.23702723000516e-03 
6.79500000000000e+00 1.12493973575443e-02 5.20267286495322e-03 
6.82500000000000e+00 1.11007473628743e-02 5.16833240346816e-03 
6.85500000000000e+00 1.09531622087363e-02 5.13400731123417e-03 
6.88500000000000e+00 1.08066401106699e-02 5.09969498740329e-03 
6.91500000000000e+00 1.06611794120065e-02 5.06539403202487e-03 
6.94500000000000e+00 1.05167326888791e-02 5.03110952340867e-03 
6.97500000000000e+00 1.03732989912019e-02 4.99683857490612e-03 
7.00500000000000e+00 1.02308772777313e-02 4.96255908376476e-03 
7.03500000000000e+00 1.00894371590742e-02 4.92821710354938e-03 
7.06500000000000e+00 9.94896708468428e-03 4.89377111090247e-03 
7.09500000000000e+00 9.80947029554318e-03 4.85913935108908e-03 
7.12500000000000e+00 9.67090238183444e-03 4.82403488035624e-03 
7.15500000000000e+00 9.53318111162346e-03 4.78812488026737e-03 
7.18500000000000e+00 9.39633573902170e-03 4.75129927925554e-03 
7.21500000000000e+00 9.26039430582329e-03 4.71360522855478e-03 
7.24500000000000e+00 9.12538324953295e-03 4.67508529915669e-03 
7.27500000000000e+00 8.99132845416302e-03 4.63577264666994e-03 
7.30500000000000e+00 8.85825497203896e-03 4.59569547397868e-03 
7.33500000000000e+00 8.72618748067132e-03 4.55487906118747e-03 
7.36500000000000e+00 8.59514992612872e-03 4.51335254597655e-03 
7.39500000000000e+00 8.46516514955973e-03 4.47117101050389e-03 
7.42500000000000e+00 8.33626193046437e-03 4.42844280574393e-03 
7.45500000000000e+00 8.20847264327135e-03 4.38528670280853e-03 
7.48500000000000e+00 8.08181068670962e-03 4.34176692987443e-03 
7.51500000000000e+00 7.95628872815525e-03 4.29790847899372e-03 
7.54500000000000e+00 7.83191887789789e-03 4.25373505119215e-03 
7.57500000000000e+00 7.70871247733210e-03 4.20927279040280e-03 
7.60500000000000e+00 7.58668010572075e-03 4.16454868550241e-03 
7.63500000000000e+00 7.46583162020734e-03 4.11958797954149e-03 
7.66500000000000e+00 7.34617614628857e-03 4.07441499668882e-03 
7.69500000000000e+00 7.22772216814637e-03 4.02905401214128e-03 
7.72500000000000e+00 7.11048489437643e-03 3.98352598218816e-03 
7.75500000000000e+00 6.99448605684701e-03 3.93784359753781e-03 
7.78500000000000e+00 6.87973212696207e-03 3.89202075468265e-03 
7.81500000000000e+00 6.76622919480623e-03 3.84607844098016e-03 
7.84500000000000e+00 6.65397482415189e-03 3.80004499476595e-03 
7.87500000000000e+00 6.54297361464383e-03 3.75394006768630e-03 
7.90500000000000e+00 6.43322980761948e-03 3.70777803441167e-03 
7.93500000000000e+00 6.32471554306131e-03 3.66157902395334e-03 
7.96500000000000e+00 6.21741951968775e-03 3.61535264749986e-03 
7.99500000000000e+00 6.11134602339714e-03 3.56914488850801e-03 
8.02500000000000e+00 6.00650927299057e-03 3.52308398372722e-03 
8.05500000000000e+00 5.90295347038873e-03 3.47726341487742e-03 
8.08500000000000e+00 5.80065398379530e-03 3.43169471641907e-03 
8.11500000000000e+00 5.69960647034358e-03 3.38636560203998e-03 
8.14500000000000e+00 5.59982459188702e-03 3.34128703974754e-03 
8.17500000000000e+00 5.50130224295647e-03 3.29647409143920e-03 
8.20500000000000e+00 5.40403094513518e-03 3.25193793196429e-03 
8.23500000000000e+00 5.30800039151092e-03 3.20769077296356e-03 
8.26500000000000e+00 5.21320199762690e-03 3.16374205402710e-03 
8.29500000000000e+00 5.11962893131115e-03 3.12009672043955e-03 
8.32500000000000e+00 5.02726089247790e-03 3.07676011805259e-03 
8.35500000000000e+00 4.93606478304237e-03 3.03374116203119e-03 
8.38500000000000e+00 4.84603330325431e-03 2.99104284273519e-03 
8.41500000000000e+00 4.75715999427058e-03 2.94863864351186e-03 
8.44500000000000e+00 4.66944228409233e-03 2.90647043585662e-03 
8.47500000000000e+00 4.58287702594571e-03 2.86451687298608e-03 
8.50500000000000e+00 4.49746071621559e-03 2.82277398087986e-03 
8.53500000000000e+00 4.41317855249831e-03 2.78122072310703e-03 
8.56500000000000e+00 4.33001701896400e-03 2.73984398434649e-03 
8.59500000000000e+00 4.24797439279163e-03 2.69864054982504e-03 
8.62500000000000e+00 4.16705807655508e-03 2.65758709371181e-03 
8.65500000000000e+00 4.08728491252320e-03 2.61665006983759e-03 
8.68500000000000e+00 4.00865454810502e-03 2.57582969132253e-03 
8.71500000000000e+00 3.93116615101424e-03 2.53514124673959e-03 
8.74500000000000e+00 3.85481843713557e-03 2.49459948801150e-03 
8.77500000000000e+00 3.77960966094092e-03 2.45421832422085e-03 
8.80500000000000e+00 3.70553763915099e-03 2.41401391795948e-03 
8.83500000000000e+00 3.63259944007156e-03 2.37400588274015e-03 
8.86500000000000e+00 3.56079160189364e-03 2.33421131857288e-03 
8.89500000000000e+00 3.49011027233073e-03 2.29464226368768e-03 
8.92500000000000e+00 3.42054981091158e-03 2.25530874274218e-03 
8.95500000000000e+00 3.35210294524837e-03 2.21622021954719e-03 
8.98500000000000e+00 3.28476503762966e-03 2.17738507746734e-03 
9.01500000000000e+00 3.21853113582562e-03 2.13884189726423e-03 
9.04500000000000e+00 3.15345649184429e-03 2.10062244730077e-03 
9.07500000000000e+00 3.08953080350725e-03 2.06276312793363e-03 
9.10500000000000e+00 3.02674362288211e-03 2.02526757236524e-03 
9.13500000000000e+00 2.96507933729168e-03 1.98814143016423e-03 
9.16500000000000e+00 2.90452493413769e-03 1.95138829184115e-03 
9.19500000000000e+00 2.84506984589084e-03 1.91501946594380e-03 
9.22500000000000e+00 2.78670069861142e-03 1.87907379308826e-03 
9.25500000000000e+00 2.72940125646727e-03 1.84359721177891e-03 
9.28500000000000e+00 2.67315765537811e-03 1.80860484084807e-03 
9.31500000000000e+00 2.61795612414988e-03 1.77409385131900e-03 
