Energy(eV)           EEDF(eV^-(3/2))      Anisotropy(eV^-(3/2))
7.23379629629630e-03 7.75209181048936e-01 8.94146057740642e-02 
2.17013888888889e-02 7.64982728064163e-01 6.05136688525965e-02 
3.61689814814815e-02 7.51631723267798e-01 9.48424190419127e-02 
5.06365740740741e-02 7.36928253311411e-01 1.18612456061340e-01 
6.51041666666667e-02 7.21804688966247e-01 1.35971865640541e-01 
7.95717592592593e-02 7.06843221752498e-01 1.48777509083257e-01 
9.40393518518519e-02 6.92246025195267e-01 1.56740020754582e-01 
1.08506944444444e-01 6.78571695812491e-01 1.60776087323857e-01 
1.22974537037037e-01 6.65720959854978e-01 1.62504837009924e-01 
1.37442129629630e-01 6.53484063098047e-01 1.63651539806258e-01 
1.51909722222222e-01 6.41688537510783e-01 1.64829196071393e-01 
1.66377314814815e-01 6.30571616059268e-01 1.64903204776858e-01 
1.80844907407407e-01 6.20301410024654e-01 1.63801233262150e-01 
1.95312500000000e-01 6.10660369377251e-01 1.62663830739624e-01 
2.09780092592593e-01 6.01578486899759e-01 1.61622960610058e-01 
2.24247685185185e-01 5.92864592473100e-01 1.60439924206516e-01 
2.38715277777778e-01 5.84521834195611e-01 1.59241009666882e-01 
2.53182870370370e-01 5.76538639495200e-01 1.59535045012587e-01 
2.67650462962963e-01 5.68826795973488e-01 1.61804399510386e-01 
2.82118055555556e-01 5.61369543882250e-01 1.63183270180939e-01 
2.96585648148148e-01 5.54324744793693e-01 1.61862526808557e-01 
3.11053240740741e-01 5.47699338327593e-01 1.58754946584682e-01 
3.25520833333333e-01 5.41392608210792e-01 1.54574449268508e-01 
3.39988425925926e-01 5.35333633071091e-01 1.49410476051817e-01 
3.54456018518519e-01 5.29745081579662e-01 1.44009042119183e-01 
3.68923611111111e-01 5.24464797628357e-01 1.39886568972538e-01 
3.83391203703704e-01 5.19388824171766e-01 1.37809552303979e-01 
3.97858796296296e-01 5.14433893631129e-01 1.36141810961634e-01 
4.12326388888889e-01 5.09640490679777e-01 1.33213264301364e-01 
4.26793981481482e-01 5.05032132229456e-01 1.30160281055961e-01 
4.41261574074074e-01 5.00575225489726e-01 1.26421492436271e-01 
4.55729166666667e-01 4.96064275236150e-01 1.21366430049515e-01 
4.70196759259259e-01 4.91966843085507e-01 1.16664491310470e-01 
4.84664351851852e-01 4.88155210938019e-01 1.13404588556484e-01 
4.99131944444445e-01 4.84487161019365e-01 1.11847631389043e-01 
5.13599537037037e-01 4.80869899882068e-01 1.11645817885198e-01 
5.28067129629630e-01 4.77282979219432e-01 1.10950762266970e-01 
5.42534722222222e-01 4.73765386200591e-01 1.09715044543313e-01 
5.57002314814815e-01 4.70311248247060e-01 1.07608740884655e-01 
5.71469907407407e-01 4.66805150475945e-01 1.03895553527027e-01 
5.85937500000000e-01 4.63416868339685e-01 1.00162255453919e-01 
6.00405092592593e-01 4.60370681896896e-01 9.82665544709704e-02 
6.14872685185185e-01 4.57380890648509e-01 9.81357165765644e-02 
6.29340277777778e-01 4.54435483333806e-01 9.80116355220528e-02 
6.43807870370370e-01 4.51559866348826e-01 9.73202734993417e-02 
6.58275462962963e-01 4.48761468762873e-01 9.66489276567176e-02 
6.72743055555556e-01 4.46030179813992e-01 9.59931747184831e-02 
6.87210648148148e-01 4.43373743318729e-01 9.40366801615252e-02 
7.01678240740741e-01 4.40561670966558e-01 9.12230509418366e-02 
7.16145833333333e-01 4.38126785253447e-01 8.96760257549884e-02 
7.30613425925926e-01 4.35724643298469e-01 8.98941301905769e-02 
7.45081018518519e-01 4.33325472305983e-01 8.99383479989000e-02 
7.59548611111111e-01 4.30948978416153e-01 8.97019165174147e-02 
7.74016203703704e-01 4.28590310358683e-01 8.96166957261986e-02 
7.88483796296296e-01 4.26246199497192e-01 8.89488996296827e-02 
8.02951388888889e-01 4.23799779494996e-01 8.72700672949776e-02 
8.17418981481482e-01 4.21410894724745e-01 8.57562760165439e-02 
8.31886574074074e-01 4.19135433010851e-01 8.54641895750623e-02 
8.46354166666667e-01 4.16813947161956e-01 8.59416617252748e-02 
8.60821759259259e-01 4.14439590696180e-01 8.64899242882096e-02 
8.75289351851852e-01 4.12014443104396e-01 8.69558906484177e-02 
8.89756944444445e-01 4.09540118622547e-01 8.73759688870978e-02 
9.04224537037037e-01 4.07016864208129e-01 8.72322227632503e-02 
9.18692129629630e-01 4.04338309406417e-01 8.65049708350816e-02 
9.33159722222222e-01 4.01811350391441e-01 8.62882515944812e-02 
9.47627314814815e-01 3.99306544028834e-01 8.69239043470126e-02 
9.62094907407408e-01 3.96775055761911e-01 8.78291151149400e-02 
9.76562500000000e-01 3.94213849285613e-01 8.87660061539269e-02 
9.91030092592593e-01 3.91624026141693e-01 8.96845709648697e-02 
1.00549768518519e+00 3.89005441049552e-01 9.06119023849418e-02 
1.01996527777778e+00 3.86342034101188e-01 9.13153927898395e-02 
1.03443287037037e+00 3.83571370758328e-01 9.16546665923704e-02 
1.04890046296296e+00 3.80811358486569e-01 9.21402707579768e-02 
1.06336805555556e+00 3.78057828020523e-01 9.30484090862672e-02 
1.07783564814815e+00 3.75257107156476e-01 9.40833336898095e-02 
1.09230324074074e+00 3.72409763540114e-01 9.50902648235712e-02 
1.10677083333333e+00 3.69515998696970e-01 9.60792122865097e-02 
1.12123842592593e+00 3.66576754487567e-01 9.70606528731722e-02 
1.13570601851852e+00 3.63591526986056e-01 9.79016794045896e-02 
1.15017361111111e+00 3.60518118261338e-01 9.85777546226955e-02 
1.16464120370370e+00 3.57450170622070e-01 9.93917532823588e-02 
1.17910879629630e+00 3.54343255590209e-01 1.00363218540588e-01 
1.19357638888889e+00 3.51188001491269e-01 1.01335261815799e-01 
1.20804398148148e+00 3.47983791071499e-01 1.02285426474587e-01 
1.22251157407407e+00 3.44732385189516e-01 1.03214551886721e-01 
1.23697916666667e+00 3.41433133694365e-01 1.04062859176211e-01 
1.25144675925926e+00 3.38066714109894e-01 1.04815574196734e-01 
1.26591435185185e+00 3.34677610914993e-01 1.05582136139396e-01 
1.28038194444444e+00 3.31243535630320e-01 1.06348206841001e-01 
1.29484953703704e+00 3.27764177821347e-01 1.07043057055872e-01 
1.30931712962963e+00 3.24240660237690e-01 1.07653709476376e-01 
1.32378472222222e+00 3.20674632666905e-01 1.08171693350651e-01 
1.33825231481481e+00 3.17068186334335e-01 1.08577126434043e-01 
1.35271990740741e+00 3.13418201085725e-01 1.08850967927142e-01 
1.36718750000000e+00 3.09734862989391e-01 1.09016967800878e-01 
1.38165509259259e+00 3.06025855611192e-01 1.09096512530127e-01 
1.39612268518519e+00 3.02286983861417e-01 1.09068956797554e-01 
1.41059027777778e+00 2.98521852512592e-01 1.08919263970692e-01 
1.42505787037037e+00 2.94733831345669e-01 1.08648419184674e-01 
1.43952546296296e+00 2.90926186080292e-01 1.08251844851783e-01 
1.45399305555556e+00 2.87100233546565e-01 1.07731869776464e-01 
1.46846064814815e+00 2.83264597270136e-01 1.07110703023259e-01 
1.48292824074074e+00 2.79423175223108e-01 1.06407074412954e-01 
1.49739583333333e+00 2.75577853102528e-01 1.05624113821542e-01 
1.51186342592593e+00 2.71735160769067e-01 1.04767762928855e-01 
1.52633101851852e+00 2.67905966274394e-01 1.03848613275572e-01 
1.54079861111111e+00 2.64093416240707e-01 1.02873903728619e-01 
1.55526620370370e+00 2.60300369305140e-01 1.01855493618586e-01 
1.56973379629630e+00 2.56531604909966e-01 1.00810990279031e-01 
1.58420138888889e+00 2.52790274589932e-01 9.97488773428496e-02 
1.59866898148148e+00 2.49077857460228e-01 9.86718928934785e-02 
1.61313657407407e+00 2.45400264077502e-01 9.75816377967822e-02 
1.62760416666667e+00 2.41762227802221e-01 9.64789827090431e-02 
1.64207175925926e+00 2.38166898043322e-01 9.53630076923334e-02 
1.65653935185185e+00 2.34614221658664e-01 9.42334200129631e-02 
1.67100694444444e+00 2.31105644212823e-01 9.30913291071317e-02 
1.68547453703704e+00 2.27642646645818e-01 9.19324621582117e-02 
1.69994212962963e+00 2.24223473187641e-01 9.07519906554262e-02 
1.71440972222222e+00 2.20854464557331e-01 8.95450706455917e-02 
1.72887731481482e+00 2.17540256882464e-01 8.83060590341921e-02 
1.74334490740741e+00 2.14281294362500e-01 8.70327828328932e-02 
1.75781250000000e+00 2.11077509808627e-01 8.57275948233327e-02 
1.77228009259259e+00 2.07929044932435e-01 8.43903828408959e-02 
1.78674768518519e+00 2.04836692553664e-01 8.30207636727316e-02 
1.80121527777778e+00 2.01800692545144e-01 8.16249503404385e-02 
1.81568287037037e+00 1.98821317003605e-01 8.02101948477903e-02 
1.83015046296296e+00 1.95899850325687e-01 7.87843703324809e-02 
1.84461805555556e+00 1.93035883500388e-01 7.73590154631995e-02 
1.85908564814815e+00 1.90229892744620e-01 7.59475765517401e-02 
1.87355324074074e+00 1.87481702691246e-01 7.45609433050249e-02 
1.88802083333333e+00 1.84790677447956e-01 7.32078096794902e-02 
1.90248842592593e+00 1.82156639665538e-01 7.18954378001884e-02 
1.91695601851852e+00 1.79583322642117e-01 7.06227239277195e-02 
1.93142361111111e+00 1.77072214578018e-01 6.93895002890369e-02 
1.94589120370370e+00 1.74622918590572e-01 6.81947164381229e-02 
1.96035879629630e+00 1.72233121280093e-01 6.70330331247571e-02 
1.97482638888889e+00 1.69903183489643e-01 6.58974889135471e-02 
1.98929398148148e+00 1.67630781521828e-01 6.47832750891703e-02 
2.00376157407407e+00 1.65416023107099e-01 6.36869312349515e-02 
2.01822916666667e+00 1.63257428534519e-01 6.26038531846546e-02 
2.03269675925926e+00 1.61152672106532e-01 6.15336311504175e-02 
2.04716435185185e+00 1.59102397008928e-01 6.04778109303167e-02 
2.06163194444444e+00 1.57102644477078e-01 5.94375266574307e-02 
2.07609953703704e+00 1.55153710028837e-01 5.84146870968393e-02 
2.09056712962963e+00 1.53252074473926e-01 5.74120273773868e-02 
2.10503472222222e+00 1.51396706402471e-01 5.64303020584841e-02 
2.11950231481481e+00 1.49579364850751e-01 5.54718992405052e-02 
2.13396990740741e+00 1.47796777183905e-01 5.45364530150356e-02 
2.14843750000000e+00 1.46049221184148e-01 5.36230694338641e-02 
2.16290509259259e+00 1.44334636536092e-01 5.27283080359951e-02 
2.17737268518519e+00 1.42652885325961e-01 5.18516564608580e-02 
2.19184027777778e+00 1.41004630293644e-01 5.09945469850386e-02 
2.20630787037037e+00 1.39388185391702e-01 5.01555237714393e-02 
2.22077546296296e+00 1.37800502327166e-01 4.93348530724292e-02 
2.23524305555556e+00 1.36241663211262e-01 4.85357963846209e-02 
2.24971064814815e+00 1.34711658399776e-01 4.77610856306619e-02 
2.26417824074074e+00 1.33209555086205e-01 4.70125622505283e-02 
2.27864583333333e+00 1.31734439733019e-01 4.62952736145613e-02 
2.29311342592593e+00 1.30285933566039e-01 4.56109097193586e-02 
2.30758101851852e+00 1.28861162874403e-01 4.49573807528827e-02 
2.32204861111111e+00 1.27459795118836e-01 4.43345404224591e-02 
2.33651620370370e+00 1.26080022538222e-01 4.37415177227503e-02 
2.35098379629630e+00 1.24719582239802e-01 4.31751056646938e-02 
2.36545138888889e+00 1.23377418413800e-01 4.26359487130262e-02 
2.37991898148148e+00 1.22052553035425e-01 4.21241799485225e-02 
2.39438657407407e+00 1.20743629421956e-01 4.16356560342630e-02 
2.40885416666667e+00 1.19449899648311e-01 4.11679404332176e-02 
2.42332175925926e+00 1.18172636832972e-01 4.07210509385432e-02 
2.43778935185185e+00 1.16911139471336e-01 4.02939510302867e-02 
2.45225694444444e+00 1.15665037689175e-01 3.98861148939203e-02 
2.46672453703704e+00 1.14434677300638e-01 3.95003100012225e-02 
2.48119212962963e+00 1.13219889434934e-01 3.91378783222555e-02 
2.49565972222222e+00 1.12019406901205e-01 3.87982630701326e-02 
2.51012731481482e+00 1.10832645629205e-01 3.84792113207897e-02 
2.52459490740741e+00 1.09656816456403e-01 3.81745868238049e-02 
2.53906250000000e+00 1.08491185571571e-01 3.78797733975881e-02 
2.55353009259259e+00 1.07335230617110e-01 3.75950975425056e-02 
2.56799768518519e+00 1.06188442523433e-01 3.73201052105954e-02 
2.58246527777778e+00 1.05050033376825e-01 3.70515766683404e-02 
2.59693287037037e+00 1.03919041704737e-01 3.67865782687814e-02 
2.61140046296296e+00 1.02795924769625e-01 3.65236063848359e-02 
2.62586805555556e+00 1.01679747188377e-01 3.62596147575495e-02 
2.64033564814815e+00 1.00570715185211e-01 3.59924941207001e-02 
2.65480324074074e+00 9.94694510174909e-02 3.57232039459779e-02 
2.66927083333333e+00 9.83760003593154e-02 3.54519364538615e-02 
2.68373842592593e+00 9.72905356322045e-02 3.51790404554760e-02 
2.69820601851852e+00 9.62135252043304e-02 3.49070555077017e-02 
2.71267361111111e+00 9.51454683103212e-02 3.46384251172861e-02 
2.72714120370370e+00 9.40859308161538e-02 3.43738581944554e-02 
2.74160879629630e+00 9.30349461811358e-02 3.41146498134588e-02 
2.75607638888889e+00 9.19926196572884e-02 3.38618092668285e-02 
2.77054398148148e+00 9.09580973025077e-02 3.36133767755805e-02 
2.78501157407407e+00 8.99311081769100e-02 3.33677440390056e-02 
2.79947916666667e+00 8.89116878615326e-02 3.31242374479264e-02 
2.81394675925926e+00 8.78969448746220e-02 3.28811006757445e-02 
2.82841435185185e+00 8.68862677187572e-02 3.26362951653878e-02 
2.84288194444444e+00 8.58798029227898e-02 3.23890528400212e-02 
2.85734953703704e+00 8.48778203983220e-02 3.21379684405962e-02 
2.87181712962963e+00 8.38799153372088e-02 3.18816657987989e-02 
2.88628472222222e+00 8.28866458277749e-02 3.16209508476687e-02 
2.90075231481482e+00 8.18984773224198e-02 3.13570595962979e-02 
2.91521990740741e+00 8.09153170154712e-02 3.10903648629707e-02 
2.92968750000000e+00 7.99376803014104e-02 3.08222245003773e-02 
2.94415509259259e+00 7.89656999923572e-02 3.05541532597221e-02 
2.95862268518519e+00 7.79993499066465e-02 3.02863966474348e-02 
2.97309027777778e+00 7.70385266373816e-02 3.00190481560329e-02 
2.98755787037037e+00 7.60834058054012e-02 2.97522368960051e-02 
3.00202546296296e+00 7.51330457012111e-02 2.94857332421132e-02 
3.01649305555556e+00 7.41873182223390e-02 2.92193661908167e-02 
3.03096064814815e+00 7.32465052986751e-02 2.89535773340087e-02 
3.04542824074074e+00 7.23104972389129e-02 2.86876559131716e-02 
3.05989583333333e+00 7.13791367065413e-02 2.84200441017069e-02 
3.07436342592593e+00 7.04523976862771e-02 2.81503323681592e-02 
3.08883101851852e+00 6.95305363283186e-02 2.78780656200994e-02 
3.10329861111111e+00 6.86137042714602e-02 2.76012293584113e-02 
3.11776620370370e+00 6.77022069494180e-02 2.73176393006933e-02 
3.13223379629630e+00 6.67965605015429e-02 2.70278159601404e-02 
3.14670138888889e+00 6.58970074977369e-02 2.67345273105450e-02 
3.16116898148148e+00 6.50036191915879e-02 2.64394947946576e-02 
3.17563657407407e+00 6.41166406497055e-02 2.61432493511283e-02 
3.19010416666667e+00 6.32361503810766e-02 2.58459043061206e-02 
3.20457175925926e+00 6.23618353844421e-02 2.55479394139973e-02 
3.21903935185185e+00 6.14943979821419e-02 2.52505001254998e-02 
3.23350694444444e+00 6.06339737537805e-02 2.49536398829252e-02 
3.24797453703704e+00 5.97805572160812e-02 2.46549027151649e-02 
3.26244212962963e+00 5.89342633780156e-02 2.43518774637996e-02 
3.27690972222222e+00 5.80953132309787e-02 2.40440151552637e-02 
3.29137731481482e+00 5.72638856499187e-02 2.37314920876917e-02 
3.30584490740741e+00 5.64402293006592e-02 2.34146020126561e-02 
3.32031250000000e+00 5.56241536339153e-02 2.30936454408634e-02 
3.33478009259259e+00 5.48159160051207e-02 2.27678333408422e-02 
3.34924768518519e+00 5.40157411730938e-02 2.24363485591047e-02 
3.36371527777778e+00 5.32239451653062e-02 2.20992606680792e-02 
3.37818287037037e+00 5.24408551773558e-02 2.17569876344160e-02 
3.39265046296296e+00 5.16667185962423e-02 2.14096312187432e-02 
3.40711805555556e+00 5.09017995256386e-02 2.10582462564639e-02 
3.42158564814815e+00 5.01462553536529e-02 2.07051284621614e-02 
3.43605324074074e+00 4.94001824067786e-02 2.03514273123968e-02 
3.45052083333333e+00 4.86636776263265e-02 1.99971483993374e-02 
3.46498842592593e+00 4.79368641694175e-02 1.96423877206329e-02 
3.47945601851852e+00 4.72198812570095e-02 1.92872767672490e-02 
3.49392361111111e+00 4.65128221045592e-02 1.89319325148452e-02 
3.50839120370370e+00 4.58158086750698e-02 1.85765278174953e-02 
3.52285879629630e+00 4.51289772517198e-02 1.82212874911408e-02 
3.53732638888889e+00 4.44524489106256e-02 1.78661167803541e-02 
3.55179398148148e+00 4.37863349613072e-02 1.75105255626264e-02 
3.56626157407407e+00 4.31306266814937e-02 1.71558012118064e-02 
3.58072916666667e+00 4.24858880011530e-02 1.68054631712088e-02 
3.59519675925926e+00 4.18523419454019e-02 1.64630555461960e-02 
3.60966435185185e+00 4.12300730632149e-02 1.61313019455849e-02 
3.62413194444445e+00 4.06190995039018e-02 1.58106389545984e-02 
3.63859953703704e+00 4.00183952163005e-02 1.54986769638590e-02 
3.65306712962963e+00 3.94288022885342e-02 1.51926117530353e-02 
3.66753472222222e+00 3.88501383248782e-02 1.48920500344883e-02 
3.68200231481482e+00 3.82822188683502e-02 1.45968529119808e-02 
3.69646990740741e+00 3.77248632602778e-02 1.43069590253401e-02 
3.71093750000000e+00 3.71779078636540e-02 1.40226527770981e-02 
3.72540509259259e+00 3.66411156491953e-02 1.37443250482009e-02 
3.73987268518519e+00 3.61142141408058e-02 1.34716478653631e-02 
3.75434027777778e+00 3.55970288734550e-02 1.32035673010903e-02 
3.76880787037037e+00 3.50894373377106e-02 1.29392670051291e-02 
3.78327546296296e+00 3.45913318879937e-02 1.26785380317036e-02 
3.79774305555556e+00 3.41025910824661e-02 1.24214355702293e-02 
3.81221064814815e+00 3.36230603087641e-02 1.21681962315256e-02 
3.82667824074074e+00 3.31526739351541e-02 1.19190569989895e-02 
3.84114583333333e+00 3.26912888093728e-02 1.16740598890053e-02 
3.85561342592593e+00 3.22387677705025e-02 1.14330884214535e-02 
3.87008101851852e+00 3.17949847609448e-02 1.11960374017887e-02 
3.88454861111111e+00 3.13598237169323e-02 1.09628115889868e-02 
3.89901620370370e+00 3.09330137953938e-02 1.07335591933126e-02 
3.91348379629630e+00 3.05144969777024e-02 1.05087692736948e-02 
3.92795138888889e+00 3.01042003055147e-02 1.02889200294027e-02 
3.94241898148148e+00 2.97019494605687e-02 1.00740384090930e-02 
3.95688657407407e+00 2.93075731779178e-02 9.86413714818893e-03 
3.97135416666667e+00 2.89209291859427e-02 9.65937162494284e-03 
3.98582175925926e+00 2.85421823088645e-02 9.45960903129444e-03 
4.00028935185185e+00 2.81711364409242e-02 9.26484532390038e-03 
4.01475694444444e+00 2.78076252166877e-02 9.07518036840246e-03 
4.02922453703704e+00 2.74514710346472e-02 8.89071784267574e-03 
4.04369212962963e+00 2.71024662712310e-02 8.71140860317400e-03 
4.05815972222222e+00 2.67604220881632e-02 8.53713972504486e-03 
4.07262731481481e+00 2.64254273037093e-02 8.36769891669852e-03 
4.08709490740741e+00 2.60972820093960e-02 8.20306984308309e-03 
4.10156250000000e+00 2.57757850408650e-02 8.04318896388643e-03 
4.11603009259259e+00 2.54606390982807e-02 7.88783813676884e-03 
4.13049768518519e+00 2.51516056433840e-02 7.73668895610703e-03 
4.14496527777778e+00 2.48485327753519e-02 7.58943994684071e-03 
4.15943287037037e+00 2.45512693167837e-02 7.44587743052248e-03 
4.17390046296296e+00 2.42596705168004e-02 7.30593049180775e-03 
4.18836805555556e+00 2.39735899597334e-02 7.16961373920163e-03 
4.20283564814815e+00 2.36928805374695e-02 7.03695989158090e-03 
4.21730324074074e+00 2.34174928445963e-02 6.90801781218673e-03 
4.23177083333333e+00 2.31473137466721e-02 6.78282537423002e-03 
4.24623842592593e+00 2.28821749368058e-02 6.66132281936409e-03 
4.26070601851852e+00 2.26219143093412e-02 6.54348441627035e-03 
4.27517361111111e+00 2.23663805250614e-02 6.42935854633698e-03 
4.28964120370370e+00 2.21154204548140e-02 6.31892623427360e-03 
4.30410879629630e+00 2.18688848748506e-02 6.21209482998122e-03 
4.31857638888889e+00 2.16266294934549e-02 6.10877388844846e-03 
4.33304398148148e+00 2.13885130954451e-02 6.00888731943119e-03 
4.34751157407407e+00 2.11544002182701e-02 5.91229879682735e-03 
4.36197916666667e+00 2.09241601648262e-02 5.81880108306372e-03 
4.37644675925926e+00 2.06976709186439e-02 5.72825036733432e-03 
4.39091435185185e+00 2.04748137393561e-02 5.64057440512425e-03 
4.40538194444444e+00 2.02554724814644e-02 5.55566318357089e-03 
4.41984953703704e+00 2.00395267919220e-02 5.47337584650539e-03 
4.43431712962963e+00 1.98269275398143e-02 5.39360351329172e-03 
4.44878472222222e+00 1.96176441855283e-02 5.31628036231490e-03 
4.46325231481482e+00 1.94115743770785e-02 5.24135921846481e-03 
4.47771990740741e+00 1.92086184800036e-02 5.16878646242265e-03 
4.49218750000000e+00 1.90086790163441e-02 5.09851055562691e-03 
