Energy(eV)           EEDF(eV^-(3/2))      Anisotropy(eV^-(3/2))
1.04166666666667e-02 1.77683233477111e-01 -1.37140074918077e-03 
3.12500000000000e-02 1.77703366570459e-01 -4.83537903903602e-04 
5.20833333333333e-02 1.77720048674498e-01 1.02338516298694e-04 
7.29166666666667e-02 1.77733416266636e-01 4.74561190135570e-04 
9.37500000000000e-02 1.77743058234867e-01 7.83480806739887e-04 
1.14583333333333e-01 1.77748770587655e-01 1.06454566398869e-03 
1.35416666666667e-01 1.77750377141346e-01 1.69756564539307e-03 
1.56250000000000e-01 1.77738473184318e-01 2.59178130258650e-03 
1.77083333333333e-01 1.77713136688517e-01 3.10170660372348e-03 
1.97916666666667e-01 1.77681834232125e-01 3.38152665419163e-03 
2.18750000000000e-01 1.77642395628614e-01 3.68499258414007e-03 
2.39583333333333e-01 1.77595931907737e-01 3.91470505268480e-03 
2.60416666666667e-01 1.77543276605014e-01 4.73628048789978e-03 
2.81250000000000e-01 1.77462243677746e-01 6.11310344287808e-03 
3.02083333333333e-01 1.77352332435394e-01 7.14364178358472e-03 
3.22916666666667e-01 1.77223734603300e-01 7.75762219056894e-03 
3.43750000000000e-01 1.77071723846178e-01 7.94215147807107e-03 
3.64583333333333e-01 1.76926388056419e-01 8.31263506675574e-03 
3.85416666666667e-01 1.76759232146323e-01 9.53076765307974e-03 
4.06250000000000e-01 1.76552328264910e-01 1.08727480045197e-02 
4.27083333333333e-01 1.76316729140100e-01 1.17149250473420e-02 
4.47916666666667e-01 1.76062765223730e-01 1.18836655894752e-02 
4.68750000000000e-01 1.75777190425494e-01 1.15252441535545e-02 
4.89583333333333e-01 1.75530618708190e-01 1.21327593543772e-02 
5.10416666666667e-01 1.75238045476796e-01 1.39167999086412e-02 
5.31250000000000e-01 1.74899184257127e-01 1.52174662237984e-02 
5.52083333333333e-01 1.74539210723809e-01 1.56767961579632e-02 
5.72916666666667e-01 1.74145712014226e-01 1.53102669560481e-02 
5.93750000000000e-01 1.73763450912084e-01 1.47975849110049e-02 
6.14583333333333e-01 1.73419483558163e-01 1.51254301486221e-02 
6.35416666666667e-01 1.73064452894663e-01 1.59001825100580e-02 
6.56250000000000e-01 1.72703250580886e-01 1.64685504009865e-02 
6.77083333333333e-01 1.72342383115718e-01 1.61706121350609e-02 
6.97916666666667e-01 1.71928710996247e-01 1.51888979615924e-02 
7.18750000000000e-01 1.71623683543268e-01 1.48113849531984e-02 
7.39583333333333e-01 1.71315663874819e-01 1.54965393353929e-02 
7.60416666666667e-01 1.70993233819887e-01 1.61115806539592e-02 
7.81250000000000e-01 1.70662256816619e-01 1.64773524991616e-02 
8.02083333333333e-01 1.70313077409019e-01 1.63727677939780e-02 
8.22916666666667e-01 1.69941729643491e-01 1.60814198955851e-02 
8.43750000000000e-01 1.69582470832881e-01 1.62321694331943e-02 
8.64583333333333e-01 1.69187954409796e-01 1.67024917168151e-02 
8.85416666666667e-01 1.68756241952413e-01 1.71157362740603e-02 
9.06250000000000e-01 1.68289563886014e-01 1.71151269010533e-02 
9.27083333333333e-01 1.67780230559983e-01 1.68088469836747e-02 
9.47916666666667e-01 1.67315357623463e-01 1.68362575550820e-02 
9.68750000000000e-01 1.66833265924065e-01 1.72274175202102e-02 
9.89583333333333e-01 1.66332968931440e-01 1.75849593293929e-02 
1.01041666666667e+00 1.65816875217652e-01 1.78538152954242e-02 
1.03125000000000e+00 1.65285563730994e-01 1.79679823404732e-02 
1.05208333333333e+00 1.64736308627209e-01 1.80034292390530e-02 
1.07291666666667e+00 1.64195146818782e-01 1.81801082350890e-02 
1.09375000000000e+00 1.63639739338456e-01 1.84485633194302e-02 
1.11458333333333e+00 1.63070916330701e-01 1.86918490145182e-02 
1.13541666666667e+00 1.62489109808477e-01 1.88307108871042e-02 
1.15625000000000e+00 1.61885835331806e-01 1.88807118395728e-02 
1.17708333333333e+00 1.61289492534759e-01 1.90315749662684e-02 
1.19791666666667e+00 1.60679564463806e-01 1.92651897492921e-02 
1.21875000000000e+00 1.60058668672507e-01 1.94856394250944e-02 
1.23958333333333e+00 1.59430258016179e-01 1.96710673101337e-02 
1.26041666666667e+00 1.58791536079149e-01 1.98248829700675e-02 
1.28125000000000e+00 1.58152165784494e-01 2.00078750432625e-02 
1.30208333333333e+00 1.57505477424214e-01 2.02132391648432e-02 
1.32291666666667e+00 1.56853320413879e-01 2.04129769330979e-02 
1.34375000000000e+00 1.56196834462175e-01 2.05938514709197e-02 
1.36458333333333e+00 1.55534045181651e-01 2.07564607619422e-02 
1.38541666666667e+00 1.54871352283938e-01 2.09379125577887e-02 
1.40625000000000e+00 1.54204440575428e-01 2.11355677567414e-02 
1.42708333333333e+00 1.53533467016701e-01 2.13291909926294e-02 
1.44791666666667e+00 1.52858644209234e-01 2.15120031652884e-02 
1.46875000000000e+00 1.52179501453737e-01 2.16834566459300e-02 
1.48958333333333e+00 1.51498348488960e-01 2.18547353659644e-02 
1.51041666666667e+00 1.50814019977336e-01 2.20262570063124e-02 
1.53125000000000e+00 1.50126678120257e-01 2.21932062215601e-02 
1.55208333333333e+00 1.49436378864922e-01 2.23542357837716e-02 
1.57291666666667e+00 1.48743343547481e-01 2.25104748606044e-02 
1.59375000000000e+00 1.48048156463451e-01 2.26651478453218e-02 
1.61458333333333e+00 1.47350573378849e-01 2.28176384103180e-02 
1.63541666666667e+00 1.46650748671354e-01 2.29653359526604e-02 
1.65625000000000e+00 1.45948638687106e-01 2.31079767480002e-02 
1.67708333333333e+00 1.45244849905231e-01 2.32480983735004e-02 
1.69791666666667e+00 1.44539300206331e-01 2.33861918417894e-02 
1.71875000000000e+00 1.43832350404904e-01 2.35209835286778e-02 
1.73958333333333e+00 1.43124585747776e-01 2.36521775931160e-02 
1.76041666666667e+00 1.42416154100744e-01 2.37798000456787e-02 
1.78125000000000e+00 1.41707198561158e-01 2.39039394443285e-02 
1.80208333333333e+00 1.40997858370888e-01 2.40245855058514e-02 
1.82291666666667e+00 1.40288276717281e-01 2.41415413195184e-02 
1.84375000000000e+00 1.39578602696788e-01 2.42545942759838e-02 
1.86458333333333e+00 1.38868986061421e-01 2.43637207788840e-02 
1.88541666666667e+00 1.38159573039476e-01 2.44690260324187e-02 
1.90625000000000e+00 1.37450504500230e-01 2.45706657836451e-02 
1.92708333333333e+00 1.36741307119900e-01 2.46687064294612e-02 
1.94791666666667e+00 1.36031955024895e-01 2.47632118998783e-02 
1.96875000000000e+00 1.35322571580747e-01 2.48541334892748e-02 
1.98958333333333e+00 1.34613257304302e-01 2.49413320203133e-02 
2.01041666666667e+00 1.33904138713767e-01 2.50248042983497e-02 
2.03125000000000e+00 1.33195343014282e-01 2.51046313255064e-02 
2.05208333333333e+00 1.32486991938090e-01 2.51808249473582e-02 
2.07291666666667e+00 1.31779206528404e-01 2.52534150451822e-02 
2.09375000000000e+00 1.31072104451365e-01 2.53224827003172e-02 
2.11458333333333e+00 1.30365620408133e-01 2.53880463633169e-02 
2.13541666666667e+00 1.29659147875187e-01 2.54499981628776e-02 
2.15625000000000e+00 1.28952799009212e-01 2.55083312633265e-02 
2.17708333333333e+00 1.28246683661795e-01 2.55630993197646e-02 
2.19791666666667e+00 1.27540909428632e-01 2.56143104205953e-02 
2.21875000000000e+00 1.26835463874778e-01 2.56618513224887e-02 
2.23958333333333e+00 1.26130278477592e-01 2.57055697200001e-02 
2.26041666666667e+00 1.25425468302271e-01 2.57454193647359e-02 
2.28125000000000e+00 1.24721145803320e-01 2.57814347568002e-02 
2.30208333333333e+00 1.24017421247512e-01 2.58136866555803e-02 
2.32291666666667e+00 1.23314482386928e-01 2.58422529643525e-02 
2.34375000000000e+00 1.22612487892861e-01 2.58671792870416e-02 
2.36458333333333e+00 1.21911541215397e-01 2.58885031200152e-02 
2.38541666666667e+00 1.21211743755522e-01 2.59062961016037e-02 
2.40625000000000e+00 1.20513193576861e-01 2.59205983392849e-02 
2.42708333333333e+00 1.19817641496378e-01 2.59314896161424e-02 
2.44791666666667e+00 1.19125595652098e-01 2.59390583200508e-02 
2.46875000000000e+00 1.18437147739295e-01 2.59433666449017e-02 
2.48958333333333e+00 1.17752386379729e-01 2.59444825884560e-02 
2.51041666666667e+00 1.17071396767427e-01 2.59425468577898e-02 
2.53125000000000e+00 1.16391863979178e-01 2.59375945366284e-02 
2.55208333333333e+00 1.15713869618492e-01 2.59295676029558e-02 
2.57291666666667e+00 1.15037494299099e-01 2.59185132262287e-02 
2.59375000000000e+00 1.14362816111067e-01 2.59045156336940e-02 
2.61458333333333e+00 1.13689994048186e-01 2.58876548172619e-02 
2.63541666666667e+00 1.13019436005284e-01 2.58680074071070e-02 
2.65625000000000e+00 1.12351211398165e-01 2.58456442826934e-02 
2.67708333333333e+00 1.11685387905245e-01 2.58206181256211e-02 
2.69791666666667e+00 1.11022031041892e-01 2.57930011739306e-02 
2.71875000000000e+00 1.10361204612173e-01 2.57628936830158e-02 
2.73958333333333e+00 1.09702969346249e-01 2.57304098636768e-02 
2.76041666666667e+00 1.09047381054549e-01 2.56956388619607e-02 
2.78125000000000e+00 1.08394493330980e-01 2.56586310351976e-02 
2.80208333333333e+00 1.07744358451712e-01 2.56194245276757e-02 
2.82291666666667e+00 1.07096444663893e-01 2.55780750755711e-02 
2.84375000000000e+00 1.06450417381927e-01 2.55345888493062e-02 
2.86458333333333e+00 1.05806331074903e-01 2.54889277629984e-02 
2.88541666666667e+00 1.05164239049832e-01 2.54410765965908e-02 
2.90625000000000e+00 1.04524194199603e-01 2.53910853531921e-02 
2.92708333333333e+00 1.03886291023868e-01 2.53390410271887e-02 
2.94791666666667e+00 1.03250588301574e-01 2.52849953886828e-02 
2.96875000000000e+00 1.02617133139879e-01 2.52289732401572e-02 
2.98958333333333e+00 1.01985971588021e-01 2.51710208576889e-02 
3.01041666666667e+00 1.01357147975045e-01 2.51112218687319e-02 
3.03125000000000e+00 1.00730577788518e-01 2.50496681566782e-02 
3.05208333333333e+00 1.00106296261270e-01 2.49864592873201e-02 
3.07291666666667e+00 9.94843392311989e-02 2.49217428542608e-02 
3.09375000000000e+00 9.88647391916649e-02 2.48556123865585e-02 
3.11458333333333e+00 9.82475190783973e-02 2.47881151514414e-02 
3.13541666666667e+00 9.76326749209621e-02 2.47193017531775e-02 
3.15625000000000e+00 9.70202356513167e-02 2.46492050587943e-02 
3.17708333333333e+00 9.64102294041074e-02 2.45778624582950e-02 
3.19791666666667e+00 9.58026829948649e-02 2.45053335930863e-02 
3.21875000000000e+00 9.51980644934193e-02 2.44316760338082e-02 
3.23958333333333e+00 9.45970580361731e-02 2.43569347010553e-02 
3.26041666666667e+00 9.39996824401914e-02 2.42811177471991e-02 
3.28125000000000e+00 9.34059546024037e-02 2.42041626248652e-02 
3.30208333333333e+00 9.28158922181249e-02 2.41260715164685e-02 
3.32291666666667e+00 9.22284360561943e-02 2.40469622842570e-02 
3.34375000000000e+00 9.16428932136975e-02 2.39668582257936e-02 
3.36458333333333e+00 9.10592891463298e-02 2.38857478986197e-02 
3.38541666666667e+00 9.04776485367684e-02 2.38036587037159e-02 
3.40625000000000e+00 8.98979955040268e-02 2.37206173371497e-02 
3.42708333333333e+00 8.93204072880608e-02 2.36366680890587e-02 
3.44791666666667e+00 8.87449163063332e-02 2.35518941547159e-02 
3.46875000000000e+00 8.81715404780002e-02 2.34663899414015e-02 
3.48958333333333e+00 8.76002964688668e-02 2.33802160530230e-02 
3.51041666666667e+00 8.70312002360240e-02 2.32934037670662e-02 
3.53125000000000e+00 8.64642280742518e-02 2.32059803217640e-02 
3.55208333333333e+00 8.58993950071856e-02 2.31179513287925e-02 
3.57291666666667e+00 8.53367160092930e-02 2.30293314481591e-02 
3.59375000000000e+00 8.47762053651493e-02 2.29401545351817e-02 
3.61458333333333e+00 8.42178605744684e-02 2.28504655382768e-02 
3.63541666666667e+00 8.36616313070411e-02 2.27603500486682e-02 
3.65625000000000e+00 8.31075303402570e-02 2.26698882539301e-02 
3.67708333333333e+00 8.25555661802387e-02 2.25790879317200e-02 
3.69791666666667e+00 8.20057483012824e-02 2.24879354835166e-02 
3.71875000000000e+00 8.14579203843874e-02 2.23964578754653e-02 
3.73958333333333e+00 8.09118453057360e-02 2.23046641371194e-02 
3.76041666666667e+00 8.03675354920286e-02 2.22125199611794e-02 
3.78125000000000e+00 7.98250038246581e-02 2.21200253962518e-02 
3.80208333333333e+00 7.92842627741778e-02 2.20272359052719e-02 
3.82291666666667e+00 7.87452869198081e-02 2.19343459385820e-02 
3.84375000000000e+00 7.82080543961763e-02 2.18416287956629e-02 
3.86458333333333e+00 7.76725607214448e-02 2.17492478884154e-02 
3.88541666666667e+00 7.71388011561877e-02 2.16572513558539e-02 
3.90625000000000e+00 7.66067703226640e-02 2.15656501140431e-02 
3.92708333333333e+00 7.60765435112081e-02 2.14744747259952e-02 
3.94791666666667e+00 7.55481328246865e-02 2.13838209587096e-02 
3.96875000000000e+00 7.50215274930896e-02 2.12937622908445e-02 
3.98958333333333e+00 7.44967157301119e-02 2.12043130017903e-02 
4.01041666666667e+00 7.39736859897906e-02 2.11153166427687e-02 
4.03125000000000e+00 7.34527808968912e-02 2.10265519079998e-02 
4.05208333333333e+00 7.29339982399597e-02 2.09380998794950e-02 
4.07291666666667e+00 7.24173287314768e-02 2.08500454269803e-02 
4.09375000000000e+00 7.19027632685113e-02 2.07623834558718e-02 
4.11458333333333e+00 7.13901274782129e-02 2.06751492694484e-02 
4.13541666666667e+00 7.08787551908552e-02 2.05883449247331e-02 
4.15625000000000e+00 7.03686457914894e-02 2.05017881869851e-02 
4.17708333333333e+00 6.98598022866956e-02 2.04153911517562e-02 
4.19791666666667e+00 6.93522219459046e-02 2.03291040754506e-02 
4.21875000000000e+00 6.88462131044077e-02 2.02428793184989e-02 
4.23958333333333e+00 6.83422470953388e-02 2.01567379273093e-02 
4.26041666666667e+00 6.78403202400339e-02 2.00707417231940e-02 
4.28125000000000e+00 6.73404297942999e-02 1.99848983449463e-02 
4.30208333333333e+00 6.68425726803881e-02 1.98991972124006e-02 
4.32291666666667e+00 6.63467700886487e-02 1.98136475630525e-02 
4.34375000000000e+00 6.58530336978637e-02 1.97283533021244e-02 
4.36458333333333e+00 6.53613557397734e-02 1.96434202634354e-02 
4.38541666666667e+00 6.48717269361493e-02 1.95588771372333e-02 
4.40625000000000e+00 6.43841380609859e-02 1.94746264344529e-02 
4.42708333333333e+00 6.38985087279190e-02 1.93905029296748e-02 
4.44791666666667e+00 6.34148195543277e-02 1.93064474209443e-02 
4.46875000000000e+00 6.29330695133175e-02 1.92224808818393e-02 
4.48958333333333e+00 6.24532577241601e-02 1.91386083722732e-02 
4.51041666666667e+00 6.19753831406688e-02 1.90548771920498e-02 
4.53125000000000e+00 6.14993587579592e-02 1.89714362445426e-02 
4.55208333333333e+00 6.10251772971885e-02 1.88884282322824e-02 
4.57291666666667e+00 6.05528286149907e-02 1.88059074820631e-02 
4.59375000000000e+00 6.00823024125915e-02 1.87238667868476e-02 
4.61458333333333e+00 5.96135894222491e-02 1.86422373536345e-02 
4.63541666666667e+00 5.91466852954507e-02 1.85608127066448e-02 
4.65625000000000e+00 5.86815926532208e-02 1.84793376534383e-02 
4.67708333333333e+00 5.82183175546966e-02 1.83976940811661e-02 
4.69791666666667e+00 5.77568665808043e-02 1.83158426177329e-02 
4.71875000000000e+00 5.72972238712149e-02 1.82336683988394e-02 
4.73958333333333e+00 5.68393665047411e-02 1.81510163240654e-02 
4.76041666666667e+00 5.63833112351032e-02 1.80678066452479e-02 
4.78125000000000e+00 5.59290750788686e-02 1.79840416899767e-02 
4.80208333333333e+00 5.54766745415835e-02 1.78997316568276e-02 
4.82291666666667e+00 5.50261658779106e-02 1.78148823221458e-02 
4.84375000000000e+00 5.45775907910018e-02 1.77295377598154e-02 
4.86458333333333e+00 5.41309627083889e-02 1.76437581740289e-02 
4.88541666666667e+00 5.36862941885723e-02 1.75575768050236e-02 
4.90625000000000e+00 5.32435973634029e-02 1.74709947771641e-02 
4.92708333333333e+00 5.28029377340994e-02 1.73840182226554e-02 
4.94791666666667e+00 5.23643395346493e-02 1.72966948633893e-02 
4.96875000000000e+00 5.19278124162106e-02 1.72090535029927e-02 
4.98958333333333e+00 5.14933659107975e-02 1.71211051644129e-02 
5.01041666666667e+00 5.10610091150199e-02 1.70329290510388e-02 
5.03125000000000e+00 5.06302032978313e-02 1.69446999692929e-02 
5.05208333333333e+00 5.02009569856630e-02 1.68563901977657e-02 
5.07291666666667e+00 4.97732799308050e-02 1.67679814897607e-02 
5.09375000000000e+00 4.93471816237791e-02 1.66794835701214e-02 
5.11458333333333e+00 4.89227451797116e-02 1.65909149048103e-02 
5.13541666666667e+00 4.85002717601647e-02 1.65023093829947e-02 
5.15625000000000e+00 4.80797638607327e-02 1.64137560368851e-02 
5.17708333333333e+00 4.76612227129156e-02 1.63252833850100e-02 
5.19791666666667e+00 4.72446493274039e-02 1.62368895211604e-02 
5.21875000000000e+00 4.68299939804082e-02 1.61486151082429e-02 
5.23958333333333e+00 4.64171802522081e-02 1.60605528945913e-02 
5.26041666666667e+00 4.60062061569936e-02 1.59727427525007e-02 
5.28125000000000e+00 4.55970697401286e-02 1.58851837042383e-02 
5.30208333333333e+00 4.51897690360847e-02 1.57978661051288e-02 
5.32291666666667e+00 4.47841521711142e-02 1.57107908749321e-02 
5.34375000000000e+00 4.43801198449773e-02 1.56239464640644e-02 
5.36458333333333e+00 4.39776735846922e-02 1.55373190699381e-02 
5.38541666666667e+00 4.35768150088768e-02 1.54509097095463e-02 
5.40625000000000e+00 4.31775455309349e-02 1.53646737836804e-02 
5.42708333333333e+00 4.27798719154711e-02 1.52785377361492e-02 
5.44791666666667e+00 4.23838007647570e-02 1.51924985527512e-02 
5.46875000000000e+00 4.19893363796361e-02 1.51065782894859e-02 
5.48958333333333e+00 4.15964827546949e-02 1.50207776419444e-02 
5.51041666666667e+00 4.12052438251548e-02 1.49350734913229e-02 
5.53125000000000e+00 4.08159828226486e-02 1.48493426068258e-02 
5.55208333333333e+00 4.04287040652850e-02 1.47635423527554e-02 
5.57291666666667e+00 4.00434129377603e-02 1.46776600205588e-02 
5.59375000000000e+00 3.96601144339350e-02 1.45917091672988e-02 
5.61458333333333e+00 3.92787900172570e-02 1.45057318732643e-02 
5.63541666666667e+00 3.88993506180020e-02 1.44198617743344e-02 
5.65625000000000e+00 3.85217959403960e-02 1.43342392069290e-02 
5.67708333333333e+00 3.81461222529139e-02 1.42489207875914e-02 
5.69791666666667e+00 3.77723258790219e-02 1.41639086847036e-02 
5.71875000000000e+00 3.74004480277441e-02 1.40791034669029e-02 
5.73958333333333e+00 3.70305567542082e-02 1.39942629445902e-02 
5.76041666666667e+00 3.66626596791653e-02 1.39092162692866e-02 
5.78125000000000e+00 3.62967662502701e-02 1.38239346815329e-02 
5.80208333333333e+00 3.59328855059048e-02 1.37383831238573e-02 
5.82291666666667e+00 3.55709660031049e-02 1.36525665694972e-02 
5.84375000000000e+00 3.52109769172601e-02 1.35666110770697e-02 
5.86458333333333e+00 3.48529248522189e-02 1.34806021460170e-02 
5.88541666666667e+00 3.44968154751177e-02 1.33945438729718e-02 
5.90625000000000e+00 3.41426543775096e-02 1.33084813949439e-02 
5.92708333333333e+00 3.37898487833526e-02 1.32226016079685e-02 
5.94791666666667e+00 3.34382577708445e-02 1.31369414724946e-02 
5.96875000000000e+00 3.30878892889070e-02 1.30515092208002e-02 
5.98958333333333e+00 3.27387507538506e-02 1.29663168846291e-02 
6.01041666666667e+00 3.23908493022128e-02 1.28811899504060e-02 
6.03125000000000e+00 3.20442120941376e-02 1.27957854469851e-02 
6.05208333333333e+00 3.16988638411967e-02 1.27099643552794e-02 
6.07291666666667e+00 3.13548289193896e-02 1.26237694224555e-02 
6.09375000000000e+00 3.10121308009200e-02 1.25372489891957e-02 
6.11458333333333e+00 3.06708862489196e-02 1.24505159463408e-02 
6.13541666666667e+00 3.03314871508685e-02 1.23636694086971e-02 
6.15625000000000e+00 2.99939418058560e-02 1.22767802700001e-02 
6.17708333333333e+00 2.96582591544039e-02 1.21898418306505e-02 
6.19791666666667e+00 2.93244477328559e-02 1.21028280572941e-02 
6.21875000000000e+00 2.89925205703909e-02 1.20156259834998e-02 
6.23958333333333e+00 2.86624963124942e-02 1.19281522802950e-02 
6.26041666666667e+00 2.83343898282131e-02 1.18404455477588e-02 
6.28125000000000e+00 2.80082137847892e-02 1.17525589644807e-02 
6.30208333333333e+00 2.76839802548423e-02 1.16645330415468e-02 
6.32291666666667e+00 2.73616989560309e-02 1.15763680524543e-02 
6.34375000000000e+00 2.70413815871197e-02 1.14879779562729e-02 
6.36458333333333e+00 2.67230435446904e-02 1.13993074842454e-02 
6.38541666666667e+00 2.64067000986612e-02 1.13103705416651e-02 
6.40625000000000e+00 2.60923658610754e-02 1.12210154640454e-02 
6.42708333333333e+00 2.57800763120513e-02 1.11309321113164e-02 
6.44791666666667e+00 2.54698664452234e-02 1.10400044688908e-02 
6.46875000000000e+00 2.51617667759019e-02 1.09482796059402e-02 
