Energy(eV)           EEDF(eV^-(3/2))      Anisotropy(eV^-(3/2))
1.25000000000000e-02 5.61615818775453e-01 1.51434805141848e-02 
3.75000000000000e-02 5.61131319016622e-01 1.10625600362014e-02 
6.25000000000000e-02 5.60405832242953e-01 1.88886898765078e-02 
8.75000000000000e-02 5.59515976261349e-01 2.44023243252651e-02 
1.12500000000000e-01 5.58535814516059e-01 2.76166173560884e-02 
1.37500000000000e-01 5.57522190461894e-01 2.95617111548666e-02 
1.62500000000000e-01 5.56459919070821e-01 3.09146086226544e-02 
1.87500000000000e-01 5.55401127938047e-01 3.18575220220110e-02 
2.12500000000000e-01 5.54336447673444e-01 3.25996604268956e-02 
2.37500000000000e-01 5.53248183756698e-01 3.32439097307414e-02 
2.62500000000000e-01 5.52138259868418e-01 3.43215300525960e-02 
2.87500000000000e-01 5.50991561776876e-01 3.56374367351817e-02 
3.12500000000000e-01 5.49824519079131e-01 3.58578191670473e-02 
3.37500000000000e-01 5.48665158597862e-01 3.51103679948462e-02 
3.62500000000000e-01 5.47531559963395e-01 3.42009716810355e-02 
3.87500000000000e-01 5.46415010206137e-01 3.38397042487481e-02 
4.12500000000000e-01 5.45278196520789e-01 3.43342664647696e-02 
4.37500000000000e-01 5.44100775419462e-01 3.44189608447716e-02 
4.62500000000000e-01 5.42902718471946e-01 3.37270627415082e-02 
4.87500000000000e-01 5.41745038506047e-01 3.34002603186544e-02 
5.12500000000000e-01 5.40567710114323e-01 3.39241661663894e-02 
5.37500000000000e-01 5.39355385861175e-01 3.50025786954704e-02 
5.62500000000000e-01 5.38095178657111e-01 3.57853251635482e-02 
5.87500000000000e-01 5.36788088703814e-01 3.62216130385771e-02 
6.12500000000000e-01 5.35488463966720e-01 3.76021961180156e-02 
6.37500000000000e-01 5.34112166916723e-01 3.99840172706489e-02 
6.62500000000000e-01 5.32645575490164e-01 4.24252551221627e-02 
6.87500000000000e-01 5.31098282252773e-01 4.46241486890385e-02 
7.12500000000000e-01 5.29450380992031e-01 4.68663949524086e-02 
7.37500000000000e-01 5.27734795930562e-01 4.97896044679640e-02 
7.62500000000000e-01 5.25888587492341e-01 5.33861460229359e-02 
7.87500000000000e-01 5.23894676899400e-01 5.70291805874709e-02 
8.12500000000000e-01 5.21712055007421e-01 6.06240337270950e-02 
8.37500000000000e-01 5.19411578615880e-01 6.51037767315323e-02 
8.62500000000000e-01 5.16889485861770e-01 7.04191348994563e-02 
8.87500000000000e-01 5.14122274779619e-01 7.61693241409359e-02 
9.12500000000000e-01 5.11089178713835e-01 8.22629954089607e-02 
9.37500000000000e-01 5.07778022124575e-01 8.87099053340181e-02 
9.62500000000000e-01 5.04195012986682e-01 9.56680423323524e-02 
9.87500000000000e-01 5.00300550941388e-01 1.03062736223337e-01 
1.01250000000000e+00 4.96076744098603e-01 1.10678876990607e-01 
1.03750000000000e+00 4.91419934075933e-01 1.18319505942198e-01 
1.06250000000000e+00 4.86352318068319e-01 1.26139864937043e-01 
1.08750000000000e+00 4.80824662235236e-01 1.33998946801192e-01 
1.11250000000000e+00 4.74821361451243e-01 1.41773339465122e-01 
1.13750000000000e+00 4.68341073721692e-01 1.49435579840659e-01 
1.16250000000000e+00 4.61357356648942e-01 1.56958116815783e-01 
1.18750000000000e+00 4.53883009962066e-01 1.64372989529710e-01 
1.21250000000000e+00 4.45887166914968e-01 1.71581505031220e-01 
1.23750000000000e+00 4.37249742258098e-01 1.78360043638304e-01 
1.26250000000000e+00 4.27951716778756e-01 1.84541629337289e-01 
1.28750000000000e+00 4.18007139205343e-01 1.89931156286448e-01 
1.31250000000000e+00 4.07421273790974e-01 1.94293995476486e-01 
1.33750000000000e+00 3.96164597083140e-01 1.97393639176551e-01 
1.36250000000000e+00 3.84272921690706e-01 1.99079785462394e-01 
1.38750000000000e+00 3.71812894594491e-01 1.99278826850656e-01 
1.41250000000000e+00 3.58843193716958e-01 1.97985003882034e-01 
1.43750000000000e+00 3.45448566356337e-01 1.95275132460305e-01 
1.46250000000000e+00 3.31715024538123e-01 1.91314504107774e-01 
1.48750000000000e+00 3.17741571901499e-01 1.86327300300746e-01 
1.51250000000000e+00 3.03626483471606e-01 1.80591880397715e-01 
1.53750000000000e+00 2.89633361441420e-01 1.74345141549906e-01 
1.56250000000000e+00 2.75845097298832e-01 1.67864668111932e-01 
1.58750000000000e+00 2.62330386887293e-01 1.61351731167207e-01 
1.61250000000000e+00 2.49145182464418e-01 1.54934647053531e-01 
1.63750000000000e+00 2.36425572369102e-01 1.48649394311302e-01 
1.66250000000000e+00 2.24189778774453e-01 1.42529964614953e-01 
1.68750000000000e+00 2.12434086936833e-01 1.36539996161189e-01 
1.71250000000000e+00 2.01140816379687e-01 1.30626603879139e-01 
1.73750000000000e+00 1.90426085243472e-01 1.24701565496695e-01 
1.76250000000000e+00 1.80267943924010e-01 1.18752445385980e-01 
1.78750000000000e+00 1.70647746149313e-01 1.12770276554157e-01 
1.81250000000000e+00 1.61554541350502e-01 1.06787593055820e-01 
1.83750000000000e+00 1.52983072803467e-01 1.00888331021088e-01 
1.86250000000000e+00 1.44924032341292e-01 9.51914775170667e-02 
1.88750000000000e+00 1.37367246144975e-01 8.98138770771150e-02 
1.91250000000000e+00 1.30297409795986e-01 8.48378318255521e-02 
1.93750000000000e+00 1.23770183064500e-01 8.02413119066064e-02 
1.96250000000000e+00 1.17754165468543e-01 7.60182879268388e-02 
1.98750000000000e+00 1.12222063240674e-01 7.21239147356284e-02 
2.01250000000000e+00 1.07136183253313e-01 6.84877835090665e-02 
2.03750000000000e+00 1.02459170678698e-01 6.50510070794526e-02 
2.06250000000000e+00 9.81629216818383e-02 6.17910257832326e-02 
2.08750000000000e+00 9.42101893959076e-02 5.86982599865668e-02 
2.11250000000000e+00 9.05642448034430e-02 5.57435384138401e-02 
2.13750000000000e+00 8.71426528232693e-02 5.29449568639292e-02 
2.16250000000000e+00 8.39348680475461e-02 5.02893563843687e-02 
2.18750000000000e+00 8.09265410421941e-02 4.77695244969599e-02 
2.21250000000000e+00 7.81138037445355e-02 4.53761101125517e-02 
2.23750000000000e+00 7.54816314599072e-02 4.31231184564978e-02 
2.26250000000000e+00 7.30273121298024e-02 4.10152317581301e-02 
2.28750000000000e+00 7.07409209882807e-02 3.90499472726486e-02 
2.31250000000000e+00 6.86066787278766e-02 3.72225616308089e-02 
2.33750000000000e+00 6.66110493587804e-02 3.55220180275372e-02 
2.36250000000000e+00 6.47325269149183e-02 3.39316363392651e-02 
2.38750000000000e+00 6.29602112782761e-02 3.24282124670413e-02 
2.41250000000000e+00 6.12836089629325e-02 3.10026757711685e-02 
2.43750000000000e+00 5.97024763643346e-02 2.96475946647863e-02 
2.46250000000000e+00 5.82121853745696e-02 2.83671842560409e-02 
2.48750000000000e+00 5.68162719605422e-02 2.71663332960259e-02 
2.51250000000000e+00 5.55085115938343e-02 2.60504767386778e-02 
2.53750000000000e+00 5.42735994936128e-02 2.50206738255390e-02 
2.56250000000000e+00 5.31031409378454e-02 2.40678885307189e-02 
2.58750000000000e+00 5.19891336041477e-02 2.31782096146973e-02 
2.61250000000000e+00 5.09238395319744e-02 2.23353552279128e-02 
2.63750000000000e+00 4.99030813726424e-02 2.15277113496660e-02 
2.66250000000000e+00 4.89264514552963e-02 2.07505370864566e-02 
2.68750000000000e+00 4.79926322004730e-02 2.00068112492125e-02 
2.71250000000000e+00 4.71029616761447e-02 1.93027175495187e-02 
2.73750000000000e+00 4.62554343138641e-02 1.86468432203820e-02 
2.76250000000000e+00 4.54487942900807e-02 1.80403052896487e-02 
2.78750000000000e+00 4.46768816896601e-02 1.74789741296024e-02 
2.81250000000000e+00 4.39367427798750e-02 1.69526460108828e-02 
2.83750000000000e+00 4.32220811386852e-02 1.64542745138693e-02 
2.86250000000000e+00 4.25320913671650e-02 1.59762607671641e-02 
2.88750000000000e+00 4.18646730344688e-02 1.55171198100846e-02 
2.91250000000000e+00 4.12209337306564e-02 1.50789299257706e-02 
2.93750000000000e+00 4.06000049107403e-02 1.46665820182907e-02 
2.96250000000000e+00 4.00013660864161e-02 1.42823226120100e-02 
2.98750000000000e+00 3.94229127749704e-02 1.39258826014643e-02 
3.01250000000000e+00 3.88627764547565e-02 1.35933710767630e-02 
3.03750000000000e+00 3.83188670765434e-02 1.32793698400683e-02 
3.06250000000000e+00 3.77897452776922e-02 1.29789298083540e-02 
3.08750000000000e+00 3.72747061359795e-02 1.26892347691134e-02 
3.11250000000000e+00 3.67734693878016e-02 1.24097697241741e-02 
3.13750000000000e+00 3.62860747580526e-02 1.21422519907003e-02 
3.16250000000000e+00 3.58119734584450e-02 1.18895648705148e-02 
3.18750000000000e+00 3.53507644473756e-02 1.16526681142886e-02 
3.21250000000000e+00 3.49011290705366e-02 1.14303181216457e-02 
3.23750000000000e+00 3.44623766848206e-02 1.12197497453765e-02 
3.26250000000000e+00 3.40334747721383e-02 1.10178338463826e-02 
3.28750000000000e+00 3.36140804936197e-02 1.08218368840201e-02 
3.31250000000000e+00 3.32037742959881e-02 1.06310337675966e-02 
3.33750000000000e+00 3.28024452376070e-02 1.04458460372067e-02 
3.36250000000000e+00 3.24098103375812e-02 1.02669017101539e-02 
3.38750000000000e+00 3.20257121032851e-02 1.00943841667033e-02 
3.41250000000000e+00 3.16496269074727e-02 9.92806173361668e-03 
3.43750000000000e+00 3.12812112113090e-02 9.76714922763158e-03 
3.46250000000000e+00 3.09199813471028e-02 9.61057388524034e-03 
3.48750000000000e+00 3.05657065506519e-02 9.45733843283050e-03 
3.51250000000000e+00 3.02181805837313e-02 9.30722457636592e-03 
3.53750000000000e+00 2.98773582706235e-02 9.16045825681390e-03 
3.56250000000000e+00 2.95430742247390e-02 9.01759196575502e-03 
3.58750000000000e+00 2.92152191753474e-02 8.87968794963085e-03 
3.61250000000000e+00 2.88936564087142e-02 8.74791962789163e-03 
3.63750000000000e+00 2.85781290887341e-02 8.62208201173029e-03 
3.66250000000000e+00 2.82683675153910e-02 8.50069856128552e-03 
3.68750000000000e+00 2.79642720220878e-02 8.38275610519766e-03 
3.71250000000000e+00 2.76656470733927e-02 8.26819389325002e-03 
3.73750000000000e+00 2.73723887799455e-02 8.15719635039785e-03 
3.76250000000000e+00 2.70843079220951e-02 8.04967435471442e-03 
3.78750000000000e+00 2.68012703545224e-02 7.94518157833953e-03 
3.81250000000000e+00 2.65230762218106e-02 7.84344262450425e-03 
3.83750000000000e+00 2.62495403687228e-02 7.74430030536288e-03 
3.86250000000000e+00 2.59804958097476e-02 7.64750473171972e-03 
3.88750000000000e+00 2.57158314148174e-02 7.55279480489505e-03 
3.91250000000000e+00 2.54553859637145e-02 7.46026359294003e-03 
3.93750000000000e+00 2.51991776697860e-02 7.37016950598950e-03 
3.96250000000000e+00 2.49470843347098e-02 7.28266819924230e-03 
3.98750000000000e+00 2.46990591836865e-02 7.19781282384828e-03 
4.01250000000000e+00 2.44550312910409e-02 7.11558783390986e-03 
4.03750000000000e+00 2.42143548093000e-02 7.03602553468176e-03 
4.06250000000000e+00 2.39769061666435e-02 6.95896288831354e-03 
4.08750000000000e+00 2.37426988227502e-02 6.88424099795695e-03 
4.11250000000000e+00 2.35116345717965e-02 6.81177900222279e-03 
4.13750000000000e+00 2.32835504090719e-02 6.74148434201932e-03 
4.16250000000000e+00 2.30583619141184e-02 6.67320704023706e-03 
4.18750000000000e+00 2.28359874301223e-02 6.60685260114517e-03 
4.21250000000000e+00 2.26163376600933e-02 6.54241946801546e-03 
4.23750000000000e+00 2.23993918446508e-02 6.47991151317487e-03 
4.26250000000000e+00 2.21850571712443e-02 6.41933915645174e-03 
4.28750000000000e+00 2.19732502171822e-02 6.36071376215403e-03 
4.31250000000000e+00 2.17638913136059e-02 6.30401382231447e-03 
4.33750000000000e+00 2.15569119870676e-02 6.24918677689654e-03 
4.36250000000000e+00 2.13522391910711e-02 6.19614916474070e-03 
4.38750000000000e+00 2.11498014940017e-02 6.14477054247510e-03 
4.41250000000000e+00 2.09495326170957e-02 6.09493171834221e-03 
4.43750000000000e+00 2.07513573654346e-02 6.04654141683063e-03 
4.46250000000000e+00 2.05552769049817e-02 5.99952526383704e-03 
4.48750000000000e+00 2.03612346690458e-02 5.95384573106830e-03 
4.51250000000000e+00 2.01691768236319e-02 5.90931959262706e-03 
4.53750000000000e+00 1.99790672854112e-02 5.86567271390263e-03 
4.56250000000000e+00 1.97910386282728e-02 5.82279309766320e-03 
4.58750000000000e+00 1.96050520067386e-02 5.78070566328181e-03 
4.61250000000000e+00 1.94210695653325e-02 5.73935188701847e-03 
4.63750000000000e+00 1.92390476205677e-02 5.69863436665439e-03 
4.66250000000000e+00 1.90589632348194e-02 5.65847705811316e-03 
4.68750000000000e+00 1.88807871561528e-02 5.61884875580202e-03 
4.71250000000000e+00 1.87044917778232e-02 5.57972619678631e-03 
4.73750000000000e+00 1.85300381658902e-02 5.54110619411689e-03 
4.76250000000000e+00 1.83573999007707e-02 5.50316179552583e-03 
4.78750000000000e+00 1.81865404067271e-02 5.46620088336181e-03 
4.81250000000000e+00 1.80174145037022e-02 5.43036042379959e-03 
4.83750000000000e+00 1.78499902272119e-02 5.39564106754853e-03 
4.86250000000000e+00 1.76842416170637e-02 5.36204400147055e-03 
4.88750000000000e+00 1.75201246741202e-02 5.32955200710480e-03 
4.91250000000000e+00 1.73575969148788e-02 5.29799789504844e-03 
4.93750000000000e+00 1.71965828022572e-02 5.26709284913978e-03 
4.96250000000000e+00 1.70370624420310e-02 5.23668703347071e-03 
4.98750000000000e+00 1.68790141134594e-02 5.20676898952169e-03 
5.01250000000000e+00 1.67224157014049e-02 5.17733052553047e-03 
5.03750000000000e+00 1.65671049795870e-02 5.14847648343227e-03 
5.06250000000000e+00 1.64130508532520e-02 5.12035296759036e-03 
5.08750000000000e+00 1.62602031803213e-02 5.09297818419133e-03 
5.11250000000000e+00 1.61085269976676e-02 5.06617546040271e-03 
5.13750000000000e+00 1.59579800847580e-02 5.03972321654296e-03 
5.16250000000000e+00 1.58085507290266e-02 5.01352487923089e-03 
5.18750000000000e+00 1.56602542616636e-02 4.98757684657381e-03 
5.21250000000000e+00 1.55130813568549e-02 4.96186337517526e-03 
5.23750000000000e+00 1.53670069479635e-02 4.93635626781947e-03 
5.26250000000000e+00 1.52220209021690e-02 4.91103711019268e-03 
5.28750000000000e+00 1.50781142954216e-02 4.88590101674877e-03 
5.31250000000000e+00 1.49352794532433e-02 4.86094399113160e-03 
5.33750000000000e+00 1.47934920227780e-02 4.83616453483118e-03 
5.36250000000000e+00 1.46527430638021e-02 4.81155891754153e-03 
5.38750000000000e+00 1.45130236351067e-02 4.78712412067816e-03 
5.41250000000000e+00 1.43743251533533e-02 4.76285176744231e-03 
5.43750000000000e+00 1.42366394014209e-02 4.73874454141858e-03 
5.46250000000000e+00 1.40999574184996e-02 4.71482612084311e-03 
5.48750000000000e+00 1.39642697973301e-02 4.69110990048464e-03 
5.51250000000000e+00 1.38295672339886e-02 4.66757860596288e-03 
5.53750000000000e+00 1.36958629257802e-02 4.64419689679258e-03 
5.56250000000000e+00 1.35631496526201e-02 4.62094914280340e-03 
5.58750000000000e+00 1.34314197400300e-02 4.59783581571925e-03 
5.61250000000000e+00 1.33006655854817e-02 4.57485725433417e-03 
5.63750000000000e+00 1.31708727740961e-02 4.55201985915745e-03 
5.66250000000000e+00 1.30420337049143e-02 4.52933506083872e-03 
5.68750000000000e+00 1.29141404885254e-02 4.50680778696202e-03 
5.71250000000000e+00 1.27871852738130e-02 4.48443680626882e-03 
5.73750000000000e+00 1.26611671662098e-02 4.46221437084583e-03 
5.76250000000000e+00 1.25360787322837e-02 4.44013147767360e-03 
5.78750000000000e+00 1.24119127701391e-02 4.41818907466298e-03 
5.81250000000000e+00 1.22886619430392e-02 4.39638399840426e-03 
5.83750000000000e+00 1.21663127206057e-02 4.37471133021207e-03 
5.86250000000000e+00 1.20448582304991e-02 4.35318466848576e-03 
5.88750000000000e+00 1.19242907482634e-02 4.33182095691611e-03 
5.91250000000000e+00 1.18045945935538e-02 4.31062847653002e-03 
5.93750000000000e+00 1.16857147642229e-02 4.28961803632402e-03 
5.96250000000000e+00 1.15676437736123e-02 4.26878776479994e-03 
5.98750000000000e+00 1.14503742101076e-02 4.24813489641708e-03 
6.01250000000000e+00 1.13338987614246e-02 4.22760231645278e-03 
6.03750000000000e+00 1.12180344892129e-02 4.20709275703849e-03 
6.06250000000000e+00 1.11027554363932e-02 4.18652744503083e-03 
6.08750000000000e+00 1.09880621640035e-02 4.16589625291152e-03 
6.11250000000000e+00 1.08739560181911e-02 4.14520864886101e-03 
6.13750000000000e+00 1.07604655748934e-02 4.12447666261032e-03 
6.16250000000000e+00 1.06475914190811e-02 4.10370788252477e-03 
6.18750000000000e+00 1.05353340825619e-02 4.08290357190509e-03 
6.21250000000000e+00 1.04236938049264e-02 4.06205574832127e-03 
6.23750000000000e+00 1.03126717252929e-02 4.04115281953982e-03 
6.26250000000000e+00 1.02022687788884e-02 4.02020214043284e-03 
6.28750000000000e+00 1.00924854021968e-02 3.99921492310205e-03 
6.31250000000000e+00 9.98332189551575e-03 3.97819773871364e-03 
6.33750000000000e+00 9.87477829462310e-03 3.95715310606749e-03 
6.36250000000000e+00 9.76685480205285e-03 3.93607457588589e-03 
6.38750000000000e+00 9.65955186738928e-03 3.91495989918133e-03 
6.41250000000000e+00 9.55286982018106e-03 3.89379592157577e-03 
6.43750000000000e+00 9.44681043792530e-03 3.87255784222556e-03 
6.46250000000000e+00 9.34137539410163e-03 3.85124359944941e-03 
6.48750000000000e+00 9.23656594277835e-03 3.82986311387218e-03 
6.51250000000000e+00 9.13238324142499e-03 3.80842828710334e-03 
6.53750000000000e+00 9.02882778392253e-03 3.78695457842983e-03 
6.56250000000000e+00 8.92589987341362e-03 3.76544772295863e-03 
6.58750000000000e+00 8.82359989850984e-03 3.74390947258296e-03 
6.61250000000000e+00 8.72192807766847e-03 3.72233764829649e-03 
6.63750000000000e+00 8.62088925348664e-03 3.70072548515180e-03 
6.66250000000000e+00 8.52048394166336e-03 3.67907566149377e-03 
6.68750000000000e+00 8.42071242027057e-03 3.65739469482983e-03 
6.71250000000000e+00 8.32157486887634e-03 3.63569233427512e-03 
6.73750000000000e+00 8.22307090359275e-03 3.61398387761331e-03 
6.76250000000000e+00 8.12519987353288e-03 3.59227988031392e-03 
6.78750000000000e+00 8.02796096990724e-03 3.57058486152864e-03 
6.81250000000000e+00 7.93135329611035e-03 3.54890582242908e-03 
6.83750000000000e+00 7.83537399242257e-03 3.52724748315606e-03 
6.86250000000000e+00 7.74002197350825e-03 3.50560508494403e-03 
6.88750000000000e+00 7.64529618217557e-03 3.48397656539240e-03 
6.91250000000000e+00 7.55119563543776e-03 3.46236306534836e-03 
6.93750000000000e+00 7.45769269860774e-03 3.44076633595212e-03 
6.96250000000000e+00 7.36478679800356e-03 3.41918297853122e-03 
6.98750000000000e+00 7.27247733808434e-03 3.39761532369355e-03 
7.01250000000000e+00 7.18076301515369e-03 3.37603695233634e-03 
7.03750000000000e+00 7.08961687402189e-03 3.35439830546765e-03 
7.06250000000000e+00 6.99904141001090e-03 3.33267576545246e-03 
7.08750000000000e+00 6.90903894108166e-03 3.31087675449282e-03 
7.11250000000000e+00 6.81961159901656e-03 3.28887900537817e-03 
7.13750000000000e+00 6.73068791053866e-03 3.26646155557679e-03 
7.16250000000000e+00 6.64228365718962e-03 3.24352531543179e-03 
7.18750000000000e+00 6.55441376767347e-03 3.22009647673555e-03 
7.21250000000000e+00 6.46709268696431e-03 3.19619928765910e-03 
7.23750000000000e+00 6.38033394766928e-03 3.17185677155986e-03 
7.26250000000000e+00 6.29415086987418e-03 3.14708357929174e-03 
7.28750000000000e+00 6.20855647420513e-03 3.12189506702518e-03 
7.31250000000000e+00 6.12356328889985e-03 3.09630599063511e-03 
7.33750000000000e+00 6.03918381738718e-03 3.07032656923051e-03 
7.36250000000000e+00 5.95543011421750e-03 3.04397174273729e-03 
7.38750000000000e+00 5.87231371677980e-03 3.01726051071914e-03 
7.41250000000000e+00 5.78984568845330e-03 2.99024073444161e-03 
7.43750000000000e+00 5.70804737952414e-03 2.96298462400603e-03 
7.46250000000000e+00 5.62692558098852e-03 2.93553821339570e-03 
7.48750000000000e+00 5.54648666705232e-03 2.90791660050019e-03 
7.51250000000000e+00 5.46673664909733e-03 2.88013320002676e-03 
7.53750000000000e+00 5.38768121907009e-03 2.85220058964413e-03 
7.56250000000000e+00 5.30932571385204e-03 2.82413086718101e-03 
7.58750000000000e+00 5.23167515779499e-03 2.79593645734329e-03 
7.61250000000000e+00 5.15473423126788e-03 2.76763024032553e-03 
7.63750000000000e+00 5.07850727269432e-03 2.73922458922584e-03 
7.66250000000000e+00 5.00299828592821e-03 2.71073077959151e-03 
7.68750000000000e+00 4.92821099763857e-03 2.68216001230263e-03 
7.71250000000000e+00 4.85414881857393e-03 2.65352400763824e-03 
7.73750000000000e+00 4.78082728804582e-03 2.62482667339351e-03 
7.76250000000000e+00 4.70824920767066e-03 2.59607269619225e-03 
