Energy(eV)           EEDF(eV^-(3/2))      Anisotropy(eV^-(3/2))
1.25000000000000e-02 1.57568827246091e-01 -1.14024436618698e-03 
3.75000000000000e-02 1.57585467037315e-01 -3.89021352527227e-04 
6.25000000000000e-02 1.57599157864031e-01 1.37496941451690e-04 
8.75000000000000e-02 1.57609365488246e-01 5.14183505981406e-04 
1.12500000000000e-01 1.57615513836106e-01 8.56386918799694e-04 
1.37500000000000e-01 1.57617248537119e-01 1.35646648124320e-03 
1.62500000000000e-01 1.57609948335569e-01 1.97029423138482e-03 
1.87500000000000e-01 1.57593227231383e-01 2.49010872434240e-03 
2.12500000000000e-01 1.57567446897461e-01 2.94125635006515e-03 
2.37500000000000e-01 1.57532717214637e-01 3.28518701297770e-03 
2.62500000000000e-01 1.57491289268293e-01 4.41494913620824e-03 
2.87500000000000e-01 1.57413985411163e-01 6.30028559045957e-03 
3.12500000000000e-01 1.57300126145464e-01 7.35170880686079e-03 
3.37500000000000e-01 1.57170560495765e-01 7.68381996375431e-03 
3.62500000000000e-01 1.57034462274959e-01 7.97765666205948e-03 
3.87500000000000e-01 1.56888719721248e-01 8.98354967263560e-03 
4.12500000000000e-01 1.56702048277503e-01 1.10699291857911e-02 
4.37500000000000e-01 1.56460566156610e-01 1.21760733460539e-02 
4.62500000000000e-01 1.56163019403287e-01 1.17303802532809e-02 
4.87500000000000e-01 1.55931022042624e-01 1.14293146294277e-02 
5.12500000000000e-01 1.55687429270890e-01 1.21318437422848e-02 
5.37500000000000e-01 1.55416389307780e-01 1.33125358752796e-02 
5.62500000000000e-01 1.55114841724156e-01 1.35399247605884e-02 
5.87500000000000e-01 1.54761850958721e-01 1.28663509803585e-02 
6.12500000000000e-01 1.54488931528750e-01 1.30913154107702e-02 
6.37500000000000e-01 1.54195195782854e-01 1.44907041835976e-02 
6.62500000000000e-01 1.53879381856782e-01 1.54911520985573e-02 
6.87500000000000e-01 1.53563613395297e-01 1.55290421932097e-02 
7.12500000000000e-01 1.53215476117949e-01 1.51580361611819e-02 
7.37500000000000e-01 1.52928531095265e-01 1.52301016485468e-02 
7.62500000000000e-01 1.52632227507291e-01 1.58337260340061e-02 
7.87500000000000e-01 1.52324710320859e-01 1.58161109381461e-02 
8.12500000000000e-01 1.51953034454000e-01 1.52177984865323e-02 
8.37500000000000e-01 1.51648574608431e-01 1.51496886934881e-02 
8.62500000000000e-01 1.51305965360914e-01 1.57514368556450e-02 
8.87500000000000e-01 1.50922479917610e-01 1.62966501932521e-02 
9.12500000000000e-01 1.50499727687543e-01 1.66435557971856e-02 
9.37500000000000e-01 1.50049510333621e-01 1.68625657722664e-02 
9.62500000000000e-01 1.49601046924574e-01 1.72207913999574e-02 
9.87500000000000e-01 1.49132056834675e-01 1.77038324989906e-02 
1.01250000000000e+00 1.48642577077168e-01 1.80215273169256e-02 
1.03750000000000e+00 1.48124767370999e-01 1.81748761489001e-02 
1.06250000000000e+00 1.47614354247530e-01 1.84498633262969e-02 
1.08750000000000e+00 1.47086432266223e-01 1.88355328113367e-02 
1.11250000000000e+00 1.46541210900440e-01 1.91880334284969e-02 
1.13750000000000e+00 1.45979915243333e-01 1.94552533376344e-02 
1.16250000000000e+00 1.45395957994456e-01 1.96661629421916e-02 
1.18750000000000e+00 1.44808820791658e-01 1.99386802934481e-02 
1.21250000000000e+00 1.44205172407032e-01 2.02460450328334e-02 
1.23750000000000e+00 1.43592043951829e-01 2.05105236920900e-02 
1.26250000000000e+00 1.42966404656216e-01 2.07438033238509e-02 
1.28750000000000e+00 1.42337911574682e-01 2.09987593622250e-02 
1.31250000000000e+00 1.41700456990005e-01 2.12668339125664e-02 
1.33750000000000e+00 1.41057516937596e-01 2.15071785295496e-02 
1.36250000000000e+00 1.40406459856444e-01 2.17243314412753e-02 
1.38750000000000e+00 1.39755388048268e-01 2.19597547580663e-02 
1.41250000000000e+00 1.39099263108445e-01 2.22092798806434e-02 
1.43750000000000e+00 1.38438383379962e-01 2.24429254473958e-02 
1.46250000000000e+00 1.37771781391289e-01 2.26594604580499e-02 
1.48750000000000e+00 1.37103310937114e-01 2.28760048427581e-02 
1.51250000000000e+00 1.36431023771018e-01 2.30924509758169e-02 
1.53750000000000e+00 1.35755183521653e-01 2.32986203532242e-02 
1.56250000000000e+00 1.35075432289816e-01 2.34946832320864e-02 
1.58750000000000e+00 1.34393611042718e-01 2.36877842633528e-02 
1.61250000000000e+00 1.33708955659861e-01 2.38779428638258e-02 
1.63750000000000e+00 1.33021705721058e-01 2.40606863842986e-02 
1.66250000000000e+00 1.32331828132871e-01 2.42361166604436e-02 
1.68750000000000e+00 1.31640167535620e-01 2.44071490286994e-02 
1.71250000000000e+00 1.30946537141218e-01 2.45737115683404e-02 
1.73750000000000e+00 1.30251977778469e-01 2.47345897635869e-02 
1.76250000000000e+00 1.29556703580609e-01 2.48898619031742e-02 
1.78750000000000e+00 1.28860918989756e-01 2.50397342498271e-02 
1.81250000000000e+00 1.28164820939969e-01 2.51842255951087e-02 
1.83750000000000e+00 1.27468611418916e-01 2.53231320201778e-02 
1.86250000000000e+00 1.26772492733563e-01 2.54563376872553e-02 
1.88750000000000e+00 1.26076664514716e-01 2.55839550541292e-02 
1.91250000000000e+00 1.25381318643067e-01 2.57062328320815e-02 
1.93750000000000e+00 1.24685772598882e-01 2.58232818730600e-02 
1.96250000000000e+00 1.23990195318456e-01 2.59351863662268e-02 
1.98750000000000e+00 1.23294733788382e-01 2.60418706447938e-02 
2.01250000000000e+00 1.22599542767743e-01 2.61433424001413e-02 
2.03750000000000e+00 1.21904790046078e-01 2.62396964295288e-02 
2.06250000000000e+00 1.21210635790261e-01 2.63309703978977e-02 
2.08750000000000e+00 1.20517238156885e-01 2.64172415232746e-02 
2.11250000000000e+00 1.19824749540221e-01 2.64986213461988e-02 
2.13750000000000e+00 1.19132283670851e-01 2.65750102301489e-02 
2.16250000000000e+00 1.18439985550336e-01 2.66464467714235e-02 
2.18750000000000e+00 1.17747996178357e-01 2.67130286216742e-02 
2.21250000000000e+00 1.17056453025455e-01 2.67747317152846e-02 
2.23750000000000e+00 1.16365116098422e-01 2.68313475382443e-02 
2.26250000000000e+00 1.15674130670849e-01 2.68828049043458e-02 
2.28750000000000e+00 1.14983637423138e-01 2.69292057697310e-02 
2.31250000000000e+00 1.14293772466656e-01 2.69706870597986e-02 
2.33750000000000e+00 1.13604837086618e-01 2.70073654214241e-02 
2.36250000000000e+00 1.12916960106474e-01 2.70392969563148e-02 
2.38750000000000e+00 1.12230268331416e-01 2.70665673016661e-02 
2.41250000000000e+00 1.11544884091191e-01 2.70892485224682e-02 
2.43750000000000e+00 1.10863334715624e-01 2.71074947820717e-02 
2.46250000000000e+00 1.10185737902858e-01 2.71214010033711e-02 
2.48750000000000e+00 1.09512207620372e-01 2.71310532257401e-02 
2.51250000000000e+00 1.08842853025757e-01 2.71366291334809e-02 
2.53750000000000e+00 1.08174953583430e-01 2.71381820748722e-02 
2.56250000000000e+00 1.07508610892351e-01 2.71356944046097e-02 
2.58750000000000e+00 1.06843924814504e-01 2.71292539741737e-02 
2.61250000000000e+00 1.06180991172624e-01 2.71189857067896e-02 
2.63750000000000e+00 1.05520432273204e-01 2.71050085640818e-02 
2.66250000000000e+00 1.04862336004582e-01 2.70874226879294e-02 
2.68750000000000e+00 1.04206787813784e-01 2.70663085717711e-02 
2.71250000000000e+00 1.03553869960666e-01 2.70417890680158e-02 
2.73750000000000e+00 1.02903663597045e-01 2.70140316721531e-02 
2.76250000000000e+00 1.02256241231489e-01 2.69831909607117e-02 
2.78750000000000e+00 1.01611671649196e-01 2.69493555178038e-02 
2.81250000000000e+00 1.00970021638576e-01 2.69125847143775e-02 
2.83750000000000e+00 1.00330224413177e-01 2.68729196519401e-02 
2.86250000000000e+00 9.96923515580726e-02 2.68302974198248e-02 
2.88750000000000e+00 9.90564715103690e-02 2.67847421418639e-02 
2.91250000000000e+00 9.84226507035801e-02 2.67363592923132e-02 
2.93750000000000e+00 9.77910221265164e-02 2.66852648280333e-02 
2.96250000000000e+00 9.71616456573098e-02 2.66315127337579e-02 
2.98750000000000e+00 9.65345807072017e-02 2.65751438231844e-02 
3.01250000000000e+00 9.59098845869378e-02 2.65162671469243e-02 
3.03750000000000e+00 9.52874497990111e-02 2.64550802554144e-02 
3.06250000000000e+00 9.46673199288666e-02 2.63917840926147e-02 
3.08750000000000e+00 9.40495390039401e-02 2.63264867110311e-02 
3.11250000000000e+00 9.34341499510242e-02 2.62592481977881e-02 
3.13750000000000e+00 9.28211394169827e-02 2.61901458184180e-02 
3.16250000000000e+00 9.22105467106546e-02 2.61192305009887e-02 
3.18750000000000e+00 9.16024100127836e-02 2.60465626093837e-02 
3.21250000000000e+00 9.09967654467079e-02 2.59722588853113e-02 
3.23750000000000e+00 9.03949675842953e-02 2.58963007461739e-02 
3.26250000000000e+00 8.97970464177524e-02 2.58187068980478e-02 
3.28750000000000e+00 8.92030287818808e-02 2.57394582126001e-02 
3.31250000000000e+00 8.86129400593648e-02 2.56585981868854e-02 
3.33750000000000e+00 8.80246546138550e-02 2.55763446216740e-02 
3.36250000000000e+00 8.74382072822716e-02 2.54926359976374e-02 
3.38750000000000e+00 8.68536317258856e-02 2.54075178559377e-02 
3.41250000000000e+00 8.62709606873711e-02 2.53210377854294e-02 
3.43750000000000e+00 8.56903311670964e-02 2.52333060199225e-02 
3.46250000000000e+00 8.51117667243854e-02 2.51444869125882e-02 
3.48750000000000e+00 8.45352908532931e-02 2.50546602292009e-02 
3.51250000000000e+00 8.39609264103483e-02 2.49638629688456e-02 
3.53750000000000e+00 8.33886449107334e-02 2.48721328373265e-02 
3.56250000000000e+00 8.28184679910332e-02 2.47794787708951e-02 
3.58750000000000e+00 8.22504171828876e-02 2.46859295647239e-02 
3.61250000000000e+00 8.16845127803716e-02 2.45915482657659e-02 
3.63750000000000e+00 8.11206714237365e-02 2.44964194333174e-02 
3.66250000000000e+00 8.05589135206469e-02 2.44006047282768e-02 
3.68750000000000e+00 7.99992551758106e-02 2.43041454241778e-02 
3.71250000000000e+00 7.94417120068175e-02 2.42070602952672e-02 
3.73750000000000e+00 7.88858154182926e-02 2.41094056612998e-02 
3.76250000000000e+00 7.83315841976340e-02 2.40111334440282e-02 
3.78750000000000e+00 7.77790378601719e-02 2.39122438346716e-02 
3.81250000000000e+00 7.72281952756753e-02 2.38128372562415e-02 
3.83750000000000e+00 7.66789766329046e-02 2.37132169804183e-02 
3.86250000000000e+00 7.61313851171450e-02 2.36137298541198e-02 
3.88750000000000e+00 7.55854198698249e-02 2.35145247045552e-02 
3.91250000000000e+00 7.50410798424279e-02 2.34156132999024e-02 
3.93750000000000e+00 7.44985132443092e-02 2.33170668335034e-02 
3.96250000000000e+00 7.39577137661156e-02 2.32190315400243e-02 
3.98750000000000e+00 7.34186723919006e-02 2.31215596996991e-02 
4.01250000000000e+00 7.28813802865306e-02 2.30244581327521e-02 
4.03750000000000e+00 7.23462572927031e-02 2.29274370600365e-02 
4.06250000000000e+00 7.18133055846320e-02 2.28305963247582e-02 
4.08750000000000e+00 7.12825186590002e-02 2.27340638171813e-02 
4.11250000000000e+00 7.07538900107167e-02 2.26378608128711e-02 
4.13750000000000e+00 7.02264101856376e-02 2.25420541430076e-02 
4.16250000000000e+00 6.97000820782298e-02 2.24464149149925e-02 
4.18750000000000e+00 6.91749131623614e-02 2.23508048072741e-02 
4.21250000000000e+00 6.86508937928809e-02 2.22551758463114e-02 
4.23750000000000e+00 6.81289849073465e-02 2.21594572424021e-02 
4.26250000000000e+00 6.76091860064318e-02 2.20637888224161e-02 
4.28750000000000e+00 6.70914963708062e-02 2.19682020254904e-02 
4.31250000000000e+00 6.65759152753610e-02 2.18726678866316e-02 
4.33750000000000e+00 6.60624946859247e-02 2.17772275174566e-02 
4.36250000000000e+00 6.55512312552731e-02 2.16820600984621e-02 
4.38750000000000e+00 6.50421168902991e-02 2.15872649266657e-02 
4.41250000000000e+00 6.45351435141098e-02 2.14926865341089e-02 
4.43750000000000e+00 6.40301814007250e-02 2.13981036808958e-02 
4.46250000000000e+00 6.35272339537498e-02 2.13035021322178e-02 
4.48750000000000e+00 6.30263017253544e-02 2.12089598890867e-02 
4.51250000000000e+00 6.25273851333591e-02 2.11145094549101e-02 
4.53750000000000e+00 6.20303872444559e-02 2.10203085736466e-02 
4.56250000000000e+00 6.15353024560632e-02 2.09265497955925e-02 
4.58750000000000e+00 6.10421209856618e-02 2.08333142036978e-02 
4.61250000000000e+00 6.05508330843129e-02 2.07405567087544e-02 
4.63750000000000e+00 6.00614345406501e-02 2.06480360413978e-02 
4.66250000000000e+00 5.95739291296485e-02 2.05554058010056e-02 
4.68750000000000e+00 5.90883256764228e-02 2.04625220171527e-02 
4.71250000000000e+00 5.86046327640378e-02 2.03692992602837e-02 
4.73750000000000e+00 5.81227815630226e-02 2.02755369157318e-02 
4.76250000000000e+00 5.76427916350225e-02 2.01810898350771e-02 
4.78750000000000e+00 5.71646833063482e-02 2.00859539591200e-02 
4.81250000000000e+00 5.66884761790289e-02 1.99901376367774e-02 
4.83750000000000e+00 5.62142790321312e-02 1.98936513154873e-02 
4.86250000000000e+00 5.57421091085475e-02 1.97965777175976e-02 
4.88750000000000e+00 5.52719820743238e-02 1.96989736854567e-02 
4.91250000000000e+00 5.48039131569177e-02 1.96008313342412e-02 
4.93750000000000e+00 5.43380077042113e-02 1.95021424632943e-02 
4.96250000000000e+00 5.38742800477535e-02 1.94029776599466e-02 
4.98750000000000e+00 5.34127424615988e-02 1.93033923221451e-02 
5.01250000000000e+00 5.29534066337185e-02 1.92035032972982e-02 
5.03750000000000e+00 5.24955969111755e-02 1.91035621730137e-02 
5.06250000000000e+00 5.20393234157226e-02 1.90035213849696e-02 
5.08750000000000e+00 5.15845986821677e-02 1.89033366892266e-02 
5.11250000000000e+00 5.11314350075335e-02 1.88030265554388e-02 
5.13750000000000e+00 5.06803046100558e-02 1.87025897758862e-02 
5.16250000000000e+00 5.02312125748757e-02 1.86021639642788e-02 
5.18750000000000e+00 4.97841614479360e-02 1.85018077099047e-02 
5.21250000000000e+00 4.93391534608889e-02 1.84014991900733e-02 
5.23750000000000e+00 4.88960307536099e-02 1.83012845940556e-02 
5.26250000000000e+00 4.84547959150453e-02 1.82012812597459e-02 
5.28750000000000e+00 4.80154476829805e-02 1.81015672669094e-02 
5.31250000000000e+00 4.75779847959595e-02 1.80021191935123e-02 
5.33750000000000e+00 4.71420887263854e-02 1.79029481602810e-02 
5.36250000000000e+00 4.67077628301804e-02 1.78040209595502e-02 
5.38750000000000e+00 4.62750102563342e-02 1.77053453479019e-02 
5.41250000000000e+00 4.58438339105641e-02 1.76068524263823e-02 
5.43750000000000e+00 4.54142441026300e-02 1.75084325923967e-02 
5.46250000000000e+00 4.49862499972293e-02 1.74100888998207e-02 
5.48750000000000e+00 4.45598578642966e-02 1.73118629007252e-02 
5.51250000000000e+00 4.41350738285177e-02 1.72137488779940e-02 
5.53750000000000e+00 4.37123640008263e-02 1.71156054219443e-02 
5.56250000000000e+00 4.32917337282264e-02 1.70173608079859e-02 
5.58750000000000e+00 4.28731904852298e-02 1.69189811419825e-02 
5.61250000000000e+00 4.24567413170330e-02 1.68204815470200e-02 
5.63750000000000e+00 4.20422440311519e-02 1.67220071601234e-02 
5.66250000000000e+00 4.16297014087537e-02 1.66237729550235e-02 
5.68750000000000e+00 4.12191103164718e-02 1.65258894022088e-02 
5.71250000000000e+00 4.08104676095178e-02 1.64283685066285e-02 
5.73750000000000e+00 4.04039153451345e-02 1.63310216584336e-02 
5.76250000000000e+00 3.99994573724393e-02 1.62335011507724e-02 
5.78750000000000e+00 3.95971064324514e-02 1.61356374733502e-02 
5.81250000000000e+00 3.91968747167993e-02 1.60373482370557e-02 
5.83750000000000e+00 3.87986420432636e-02 1.59386067259674e-02 
5.86250000000000e+00 3.84024260557185e-02 1.58395865355174e-02 
5.88750000000000e+00 3.80082358262128e-02 1.57404342353726e-02 
5.91250000000000e+00 3.76160801075959e-02 1.56412176855619e-02 
5.93750000000000e+00 3.72249899571097e-02 1.55422332237392e-02 
5.96250000000000e+00 3.68349776932305e-02 1.54434700080071e-02 
5.98750000000000e+00 3.64460555978786e-02 1.53449301198509e-02 
6.01250000000000e+00 3.60582355980521e-02 1.52463994448001e-02 
6.03750000000000e+00 3.56715518010097e-02 1.51474639675106e-02 
6.06250000000000e+00 3.52860362125031e-02 1.50479607058027e-02 
6.08750000000000e+00 3.49017205291275e-02 1.49479338446017e-02 
6.11250000000000e+00 3.45186357636943e-02 1.48475227374645e-02 
6.13750000000000e+00 3.41374304654377e-02 1.47468266284927e-02 
6.16250000000000e+00 3.37581182572083e-02 1.46459801219334e-02 
6.18750000000000e+00 3.33807127430016e-02 1.45449913370200e-02 
6.21250000000000e+00 3.30052270078872e-02 1.44437487339241e-02 
6.23750000000000e+00 3.26316876963944e-02 1.43420699024728e-02 
6.26250000000000e+00 3.22601172104286e-02 1.42399647864573e-02 
6.28750000000000e+00 3.18905345803840e-02 1.41375160737548e-02 
6.31250000000000e+00 3.15229581428180e-02 1.40347904843828e-02 
6.33750000000000e+00 3.11574024069472e-02 1.39317858033346e-02 
6.36250000000000e+00 3.07938860790387e-02 1.38283583133676e-02 
6.38750000000000e+00 3.04324324519792e-02 1.37244363828150e-02 
6.41250000000000e+00 3.00730639927132e-02 1.36197418050434e-02 
6.43750000000000e+00 2.97158346489926e-02 1.35137928458340e-02 
6.46250000000000e+00 2.93607925996760e-02 1.34065257700940e-02 
6.48750000000000e+00 2.90079796289060e-02 1.32980872205023e-02 
6.51250000000000e+00 2.86574361812842e-02 1.31886483080729e-02 
6.53750000000000e+00 2.83091899886558e-02 1.30784409363151e-02 
6.56250000000000e+00 2.79632695146167e-02 1.29675290406214e-02 
6.58750000000000e+00 2.76197045797406e-02 1.28559101547186e-02 
6.61250000000000e+00 2.72785239798453e-02 1.27435227790150e-02 
6.63750000000000e+00 2.69397939712404e-02 1.26302277348910e-02 
6.66250000000000e+00 2.66035501804207e-02 1.25160293205866e-02 
6.68750000000000e+00 2.62698256496596e-02 1.24010024948482e-02 
6.71250000000000e+00 2.59386522002009e-02 1.22852834498298e-02 
6.73750000000000e+00 2.56100514605446e-02 1.21691044075062e-02 
6.76250000000000e+00 2.52840429842500e-02 1.20526173345524e-02 
6.78750000000000e+00 2.49606445956518e-02 1.19358716829760e-02 
6.81250000000000e+00 2.46398732460379e-02 1.18189963709498e-02 
6.83750000000000e+00 2.43217348402630e-02 1.17021187696004e-02 
6.86250000000000e+00 2.40062408084716e-02 1.15851763178555e-02 
6.88750000000000e+00 2.36934054604176e-02 1.14681087542734e-02 
6.91250000000000e+00 2.33832422912354e-02 1.13508778418773e-02 
6.93750000000000e+00 2.30752660321506e-02 1.12335206118548e-02 
6.96250000000000e+00 2.27695036711763e-02 1.11159393766633e-02 
6.98750000000000e+00 2.24659822873815e-02 1.09981536696208e-02 
7.01250000000000e+00 2.21647279102026e-02 1.08803417848363e-02 
7.03750000000000e+00 2.18662349443400e-02 1.07626556283638e-02 
7.06250000000000e+00 2.15705044431344e-02 1.06452892363477e-02 
7.08750000000000e+00 2.12775377466831e-02 1.05282663861151e-02 
7.11250000000000e+00 2.09873356462190e-02 1.04116155739509e-02 
7.13750000000000e+00 2.06998975022670e-02 1.02954645513534e-02 
7.16250000000000e+00 2.04152168745860e-02 1.01800149502337e-02 
7.18750000000000e+00 2.01332820013876e-02 1.00653632052285e-02 
7.21250000000000e+00 1.98540808449599e-02 9.95158386455679e-03 
7.23750000000000e+00 1.95775938289123e-02 9.83873862695194e-03 
7.26250000000000e+00 1.93038063586091e-02 9.72674148686212e-03 
7.28750000000000e+00 1.90327068669584e-02 9.61552098842659e-03 
7.31250000000000e+00 1.87642835181106e-02 9.50500321433668e-03 
7.33750000000000e+00 1.84985331961238e-02 9.39504174854203e-03 
7.36250000000000e+00 1.82354520104061e-02 9.28557800836673e-03 
7.38750000000000e+00 1.79750354841969e-02 9.17662790756526e-03 
7.41250000000000e+00 1.77172786907860e-02 9.06837024876350e-03 
7.43750000000000e+00 1.74621578087868e-02 8.96115810340309e-03 
7.46250000000000e+00 1.72096474630727e-02 8.85518394189746e-03 
7.48750000000000e+00 1.69597217257092e-02 8.75045720304493e-03 
7.51250000000000e+00 1.67123548169443e-02 8.64696378558405e-03 
7.53750000000000e+00 1.64675215543628e-02 8.54468062805193e-03 
7.56250000000000e+00 1.62251971319027e-02 8.44358217015560e-03 
7.58750000000000e+00 1.59853572188012e-02 8.34365261955889e-03 
7.61250000000000e+00 1.57479775923069e-02 8.24488573500475e-03 
7.63750000000000e+00 1.55130338389470e-02 8.14727085891883e-03 
7.66250000000000e+00 1.52805016113672e-02 8.05078745743845e-03 
7.68750000000000e+00 1.50503575049324e-02 7.95541957852217e-03 
7.71250000000000e+00 1.48225782155896e-02 7.86116573520497e-03 
7.73750000000000e+00 1.45973498659074e-02 7.76797113349530e-03 
7.76250000000000e+00 1.43746446008233e-02 7.67587184038474e-03 
