Energy(eV)           EEDF(eV^-(3/2))      Anisotropy(eV^-(3/2))
8.68055555555556e-03 2.04319582678269e-01 -1.72801801181545e-03 
2.60416666666667e-02 2.04343584169438e-01 -7.54664899489441e-04 
4.34027777777778e-02 2.04364539969728e-01 -1.81827763635755e-04 
6.07638888888889e-02 2.04382875106518e-01 1.66177997054519e-04 
7.81250000000000e-02 2.04398308180094e-01 4.29678671810474e-04 
9.54861111111111e-02 2.04410670881666e-01 6.66879869768256e-04 
1.12847222222222e-01 2.04419746206383e-01 8.87079045199892e-04 
1.30208333333333e-01 2.04425377373803e-01 1.10077769520825e-03 
1.47569444444444e-01 2.04427244684101e-01 1.80908442365403e-03 
1.64930555555556e-01 2.04410942869670e-01 2.97410622307534e-03 
1.82291666666667e-01 2.04374714297371e-01 3.61816661305232e-03 
1.99652777777778e-01 2.04332807042380e-01 3.91034430839136e-03 
2.17013888888889e-01 2.04280829980613e-01 4.32094677323349e-03 
2.34375000000000e-01 2.04218820014149e-01 4.55740143543005e-03 
2.51736111111111e-01 2.04152281161877e-01 4.65186594961008e-03 
2.69097222222222e-01 2.04080380873181e-01 5.94025131364092e-03 
2.86458333333333e-01 2.03957088394432e-01 8.35553182640178e-03 
3.03819444444445e-01 2.03779304912858e-01 9.58448975804520e-03 
3.21180555555556e-01 2.03594083106506e-01 9.76589584138826e-03 
3.38541666666667e-01 2.03382736098568e-01 9.99102350169329e-03 
3.55902777777778e-01 2.03174570624339e-01 1.00777147774879e-02 
3.73263888888889e-01 2.02963888551354e-01 1.00944680743304e-02 
3.90625000000000e-01 2.02746250959899e-01 1.14394343351095e-02 
4.07986111111111e-01 2.02461293180754e-01 1.39711374180465e-02 
4.25347222222222e-01 2.02111266067501e-01 1.56306630985117e-02 
4.42708333333333e-01 2.01734223012083e-01 1.58610926640544e-02 
4.60069444444445e-01 2.01285595452164e-01 1.50971004398005e-02 
4.77430555555556e-01 2.00933437744154e-01 1.43838024145182e-02 
4.94791666666667e-01 2.00581028347824e-01 1.44118135313755e-02 
5.12152777777778e-01 2.00221363806221e-01 1.54429537596406e-02 
5.29513888888889e-01 1.99807533567349e-01 1.74954659459903e-02 
5.46875000000000e-01 1.99334510243945e-01 1.88812316460307e-02 
5.64236111111111e-01 1.98841355860203e-01 1.83853449586669e-02 
5.81597222222222e-01 1.98271061966954e-01 1.69237094301345e-02 
5.98958333333333e-01 1.97859673601820e-01 1.59991085706161e-02 
6.16319444444445e-01 1.97447229702147e-01 1.67270572161439e-02 
6.33680555555556e-01 1.97009363177028e-01 1.81784258581633e-02 
6.51041666666667e-01 1.96541447872348e-01 1.92649596768286e-02 
6.68402777777778e-01 1.96069985760033e-01 1.98196944883407e-02 
6.85763888888889e-01 1.95597317277231e-01 1.92857710695083e-02 
7.03125000000000e-01 1.95058451481767e-01 1.79253151658468e-02 
7.20486111111111e-01 1.94674672177524e-01 1.72289787718433e-02 
7.37847222222222e-01 1.94283057757298e-01 1.78202130674845e-02 
7.55208333333333e-01 1.93874867370807e-01 1.84822478038250e-02 
7.72569444444445e-01 1.93455766301234e-01 1.89343928963771e-02 
7.89930555555556e-01 1.93030094564601e-01 1.85280374913000e-02 
8.07291666666667e-01 1.92541312017174e-01 1.72878533303828e-02 
8.24652777777778e-01 1.92138973882338e-01 1.63926369778879e-02 
8.42013888888889e-01 1.91736455026172e-01 1.65144200686212e-02 
8.59375000000000e-01 1.91301670622144e-01 1.69681778014321e-02 
8.76736111111111e-01 1.90828542060034e-01 1.74601883552882e-02 
8.94097222222222e-01 1.90318420693884e-01 1.76477168065264e-02 
9.11458333333334e-01 1.89769116358503e-01 1.72740900690945e-02 
9.28819444444445e-01 1.89221242221283e-01 1.67693920765967e-02 
9.46180555555556e-01 1.88712188837754e-01 1.66935295632781e-02 
9.63541666666667e-01 1.88190813858845e-01 1.69464460491649e-02 
9.80902777777778e-01 1.87654065917271e-01 1.72611604530166e-02 
9.98263888888889e-01 1.87100627440442e-01 1.75406246533874e-02 
1.01562500000000e+00 1.86534170318600e-01 1.76085442560843e-02 
1.03298611111111e+00 1.85948767295549e-01 1.73896788194918e-02 
1.05034722222222e+00 1.85371117461241e-01 1.71857161057251e-02 
1.06770833333333e+00 1.84806973165950e-01 1.72688169142390e-02 
1.08506944444444e+00 1.84230363790984e-01 1.74921326118576e-02 
1.10243055555556e+00 1.83641404141153e-01 1.76943881487317e-02 
1.11979166666667e+00 1.83041184901018e-01 1.78708147201644e-02 
1.13715277777778e+00 1.82430185246966e-01 1.79242359248777e-02 
1.15451388888889e+00 1.81801441329838e-01 1.78664129513371e-02 
1.17187500000000e+00 1.81184687890146e-01 1.79326450523608e-02 
1.18923611111111e+00 1.80556238496606e-01 1.81228645701381e-02 
1.20659722222222e+00 1.79915932936422e-01 1.83022667605422e-02 
1.22395833333333e+00 1.79268656134049e-01 1.84487583559358e-02 
1.24131944444444e+00 1.78613938182532e-01 1.85365025333619e-02 
1.25868055555556e+00 1.77954676387542e-01 1.86065290743323e-02 
1.27604166666667e+00 1.77296827564412e-01 1.87343312654066e-02 
1.29340277777778e+00 1.76632638318086e-01 1.88990368769345e-02 
1.31076388888889e+00 1.75962465794872e-01 1.90584531794160e-02 
1.32812500000000e+00 1.75288558355288e-01 1.92145431827719e-02 
1.34548611111111e+00 1.74610917227277e-01 1.93500773889916e-02 
1.36284722222222e+00 1.73927825637438e-01 1.94656115932792e-02 
1.38020833333333e+00 1.73245721169549e-01 1.96062279825407e-02 
1.39756944444444e+00 1.72559716799760e-01 1.97695251645597e-02 
1.41493055555556e+00 1.71869877215632e-01 1.99309327657610e-02 
1.43229166666667e+00 1.71176362604550e-01 2.00875290243083e-02 
1.44965277777778e+00 1.70479258244329e-01 2.02321436022431e-02 
1.46701388888889e+00 1.69778497681809e-01 2.03673141984534e-02 
1.48437500000000e+00 1.69076107437079e-01 2.05067873283878e-02 
1.50173611111111e+00 1.68370716622106e-01 2.06489247302823e-02 
1.51909722222222e+00 1.67662486359326e-01 2.07877405212378e-02 
1.53645833333333e+00 1.66951531156196e-01 2.09216440803070e-02 
1.55381944444444e+00 1.66237708821372e-01 2.10490142954167e-02 
1.57118055555556e+00 1.65521778322557e-01 2.11750087379337e-02 
1.58854166666667e+00 1.64803860046034e-01 2.13033085441269e-02 
1.60590277777778e+00 1.64083615513583e-01 2.14313844448699e-02 
1.62326388888889e+00 1.63361147554388e-01 2.15572690180421e-02 
1.64062500000000e+00 1.62636529862254e-01 2.16792027766991e-02 
1.65798611111111e+00 1.61909717843875e-01 2.17971974774533e-02 
1.67534722222222e+00 1.61181357059847e-01 2.19148614001799e-02 
1.69270833333333e+00 1.60451213373920e-01 2.20325892321420e-02 
1.71006944444444e+00 1.59719355784786e-01 2.21484747630708e-02 
1.72743055555556e+00 1.58986491784450e-01 2.22620700915211e-02 
1.74479166666667e+00 1.58252731887455e-01 2.23733087781810e-02 
1.76215277777778e+00 1.57518183619169e-01 2.24822338404574e-02 
1.77951388888889e+00 1.56782952459230e-01 2.25888757960088e-02 
1.79687500000000e+00 1.56047142019753e-01 2.26932170248642e-02 
1.81423611111111e+00 1.55310858485470e-01 2.27950542773193e-02 
1.83159722222222e+00 1.54574219864827e-01 2.28941165994146e-02 
1.84895833333333e+00 1.53837345588027e-01 2.29903468588891e-02 
1.86631944444444e+00 1.53100352372668e-01 2.30838137838181e-02 
1.88368055555556e+00 1.52363354216090e-01 2.31745634202754e-02 
1.90104166666667e+00 1.51626462683275e-01 2.32626663096321e-02 
1.91840277777778e+00 1.50889401465810e-01 2.33481635433695e-02 
1.93576388888889e+00 1.50151970585999e-01 2.34310804054622e-02 
1.95312500000000e+00 1.49414269206633e-01 2.35114537391997e-02 
1.97048611111111e+00 1.48676392540723e-01 2.35892087878497e-02 
1.98784722222222e+00 1.47938423133572e-01 2.36641845747170e-02 
2.00520833333333e+00 1.47200466910686e-01 2.37363470564061e-02 
2.02256944444445e+00 1.46462628587187e-01 2.38057525830438e-02 
2.03993055555556e+00 1.45725009339011e-01 2.38724362441574e-02 
2.05729166666667e+00 1.44987708052035e-01 2.39364373163717e-02 
2.07465277777778e+00 1.44250821299690e-01 2.39977982334231e-02 
2.09201388888889e+00 1.43514443689750e-01 2.40565614776738e-02 
2.10937500000000e+00 1.42778635607103e-01 2.41127285006326e-02 
2.12673611111111e+00 1.42042721373069e-01 2.41661573443013e-02 
2.14409722222222e+00 1.41306795218612e-01 2.42168159259612e-02 
2.16145833333333e+00 1.40570948934014e-01 2.42647569808853e-02 
2.17881944444445e+00 1.39835272367554e-01 2.43100207524020e-02 
2.19618055555556e+00 1.39099853817870e-01 2.43526037706396e-02 
2.21354166666667e+00 1.38364716190809e-01 2.43923789358858e-02 
2.23090277777778e+00 1.37629783847090e-01 2.44291506499213e-02 
2.24826388888889e+00 1.36895157725228e-01 2.44628415789436e-02 
2.26562500000000e+00 1.36160935875723e-01 2.44934741973155e-02 
2.28298611111111e+00 1.35427214757406e-01 2.45210890351346e-02 
2.30034722222222e+00 1.34694088788925e-01 2.45457327925199e-02 
2.31770833333333e+00 1.33961705392047e-01 2.45674416397072e-02 
2.33506944444445e+00 1.33230206588608e-01 2.45862513036552e-02 
2.35243055555556e+00 1.32499681898784e-01 2.46022114597407e-02 
2.36979166666667e+00 1.31770218622579e-01 2.46153715205398e-02 
2.38715277777778e+00 1.31041902222337e-01 2.46257803865433e-02 
2.40451388888889e+00 1.30314815982163e-01 2.46334413575849e-02 
2.42187500000000e+00 1.29590424284353e-01 2.46383970078682e-02 
2.43923611111111e+00 1.28869243860704e-01 2.46407362464042e-02 
2.45659722222222e+00 1.28151352375211e-01 2.46405182365831e-02 
2.47395833333333e+00 1.27436825088722e-01 2.46377856163273e-02 
2.49131944444445e+00 1.26725735064286e-01 2.46325809493240e-02 
2.50868055555556e+00 1.26018153012583e-01 2.46250125108163e-02 
2.52604166666667e+00 1.25312073252889e-01 2.46150960403082e-02 
2.54340277777778e+00 1.24607565776468e-01 2.46027688355469e-02 
2.56076388888889e+00 1.23904698857771e-01 2.45880761353050e-02 
2.57812500000000e+00 1.23203539105552e-01 2.45710621054786e-02 
2.59548611111111e+00 1.22504151436376e-01 2.45517787694523e-02 
2.61284722222222e+00 1.21806677508634e-01 2.45302784106499e-02 
2.63020833333333e+00 1.21111427689786e-01 2.45066205943461e-02 
2.64756944444445e+00 1.20418459944187e-01 2.44808693332900e-02 
2.66493055555556e+00 1.19727830576893e-01 2.44530651461037e-02 
2.68229166666667e+00 1.19039594404782e-01 2.44232456535487e-02 
2.69965277777778e+00 1.18353804772135e-01 2.43914632550651e-02 
2.71701388888889e+00 1.17670513617497e-01 2.43578005404984e-02 
2.73437500000000e+00 1.16989769787971e-01 2.43223423630225e-02 
2.75173611111111e+00 1.16311618754130e-01 2.42851424821785e-02 
2.76909722222222e+00 1.15636104629435e-01 2.42462338805612e-02 
2.78645833333333e+00 1.14963270351274e-01 2.42056423021717e-02 
2.80381944444445e+00 1.14293157955157e-01 2.41633965153364e-02 
2.82118055555556e+00 1.13625195225798e-01 2.41195297391005e-02 
2.83854166666667e+00 1.12959188510597e-01 2.40740020176367e-02 
2.85590277777778e+00 1.12295185014922e-01 2.40267642249271e-02 
2.87326388888889e+00 1.11633230285286e-01 2.39778183800915e-02 
2.89062500000000e+00 1.10973368740518e-01 2.39271967348302e-02 
2.90798611111111e+00 1.10315643824069e-01 2.38749432158867e-02 
2.92534722222222e+00 1.09660138368978e-01 2.38211198116594e-02 
2.94270833333333e+00 1.09006893484652e-01 2.37657785400117e-02 
2.96006944444445e+00 1.08355947503912e-01 2.37089491866359e-02 
2.97743055555556e+00 1.07707337865431e-01 2.36506572862636e-02 
2.99479166666667e+00 1.07061101167023e-01 2.35909395600458e-02 
3.01215277777778e+00 1.06417252974216e-01 2.35298605435657e-02 
3.02951388888889e+00 1.05775748239737e-01 2.34675151941893e-02 
3.04687500000000e+00 1.05136612296532e-01 2.34040197279125e-02 
3.06423611111111e+00 1.04499870969193e-01 2.33394693470834e-02 
3.08159722222222e+00 1.03865549086297e-01 2.32738997090406e-02 
3.09895833333333e+00 1.03233671057372e-01 2.32073307573429e-02 
3.11631944444445e+00 1.02604245996516e-01 2.31397931110006e-02 
3.13368055555556e+00 1.01977278222581e-01 2.30713177104943e-02 
3.15104166666667e+00 1.01352789626560e-01 2.30019296024073e-02 
3.16840277777778e+00 1.00730801377208e-01 2.29316517635608e-02 
3.18576388888889e+00 1.00111333941093e-01 2.28605104874848e-02 
3.20312500000000e+00 9.94944068534576e-02 2.27885456607816e-02 
3.22048611111111e+00 9.88806777941192e-02 2.27157853648320e-02 
3.23784722222222e+00 9.82704605593250e-02 2.26422616326622e-02 
3.25520833333333e+00 9.76637698325906e-02 2.25679324743016e-02 
3.27256944444445e+00 9.70606184698457e-02 2.24927753081358e-02 
3.28993055555556e+00 9.64610186006162e-02 2.24168083393229e-02 
3.30729166666667e+00 9.58649817700376e-02 2.23400762009394e-02 
3.32465277777778e+00 9.52711264795068e-02 2.22627030164039e-02 
3.34201388888889e+00 9.46793509364828e-02 2.21846208844129e-02 
3.35937500000000e+00 9.40896741816071e-02 2.21058419185115e-02 
3.37673611111111e+00 9.35021147107580e-02 2.20263858700717e-02 
3.39409722222222e+00 9.29166905157412e-02 2.19462692899530e-02 
3.41145833333333e+00 9.23334246805465e-02 2.18655101044528e-02 
3.42881944444445e+00 9.17523627927700e-02 2.17841595134011e-02 
3.44618055555556e+00 9.11735165258543e-02 2.17022980797511e-02 
3.46354166666667e+00 9.05968978402776e-02 2.16199822182419e-02 
3.48090277777778e+00 9.00225182039807e-02 2.15372372197822e-02 
3.49826388888889e+00 8.94503887904686e-02 2.14540748167394e-02 
3.51562500000000e+00 8.88805086136826e-02 2.13705076304805e-02 
3.53298611111111e+00 8.83128706146080e-02 2.12865476911760e-02 
3.55034722222222e+00 8.77474852196046e-02 2.12022061451805e-02 
3.56770833333333e+00 8.71843624904499e-02 2.11174960626464e-02 
3.58506944444445e+00 8.66235121358402e-02 2.10324330158282e-02 
3.60243055555556e+00 8.60649433322362e-02 2.09470447860600e-02 
3.61979166666667e+00 8.55086261810787e-02 2.08613658132918e-02 
3.63715277777778e+00 8.49545481583244e-02 2.07754173193926e-02 
3.65451388888889e+00 8.44027189204686e-02 2.06892355355997e-02 
3.67187500000000e+00 8.38531443873899e-02 2.06028728291925e-02 
3.68923611111111e+00 8.33058292109705e-02 2.05163555499014e-02 
3.70659722222222e+00 8.27607779058779e-02 2.04296900232258e-02 
3.72395833333333e+00 8.22176791244553e-02 2.03429136071135e-02 
3.74131944444445e+00 8.16764964574995e-02 2.02560068396107e-02 
3.75868055555556e+00 8.11372371511354e-02 2.01689481802449e-02 
3.77604166666667e+00 8.05999090207475e-02 2.00817297317087e-02 
3.79340277777778e+00 8.00645197587418e-02 1.99943656812848e-02 
3.81076388888889e+00 7.95310729089567e-02 1.99069267478819e-02 
3.82812500000000e+00 7.89995466744039e-02 1.98195664644736e-02 
3.84548611111111e+00 7.84699377620947e-02 1.97324795146206e-02 
3.86284722222222e+00 7.79422390505118e-02 1.96458144398567e-02 
3.88020833333333e+00 7.74164415537585e-02 1.95596149548230e-02 
3.89756944444445e+00 7.68925363358383e-02 1.94738781030731e-02 
3.91493055555556e+00 7.63705360901133e-02 1.93886063166352e-02 
3.93229166666667e+00 7.58504696013595e-02 1.93038213036919e-02 
3.94965277777778e+00 7.53323261585581e-02 1.92195794618675e-02 
3.96701388888889e+00 7.48160930603091e-02 1.91359450377356e-02 
3.98437500000000e+00 7.43017560355812e-02 1.90529417461573e-02 
4.00173611111111e+00 7.37893010427527e-02 1.89704677658622e-02 
4.01909722222222e+00 7.32788926790201e-02 1.88882654888763e-02 
4.03645833333333e+00 7.27706445493598e-02 1.88062069113952e-02 
4.05381944444445e+00 7.22645546546438e-02 1.87244187393238e-02 
4.07118055555556e+00 7.17606132747971e-02 1.86430385115214e-02 
4.08854166666667e+00 7.12588088343609e-02 1.85620976205674e-02 
4.10590277777778e+00 7.07591298913614e-02 1.84816185687078e-02 
4.12326388888889e+00 7.02609926883291e-02 1.84016876243078e-02 
4.14062500000000e+00 6.97642800855012e-02 1.83222268625730e-02 
4.15798611111111e+00 6.92689873022119e-02 1.82431032961291e-02 
4.17534722222222e+00 6.87751131419861e-02 1.81642310843199e-02 
4.19270833333333e+00 6.82826543925260e-02 1.80855543047183e-02 
4.21006944444445e+00 6.77916546739955e-02 1.80070108303568e-02 
4.22743055555556e+00 6.73027107880621e-02 1.79285665663822e-02 
4.24479166666667e+00 6.68158176065013e-02 1.78503193412356e-02 
4.26215277777778e+00 6.63309695518654e-02 1.77722880159474e-02 
4.27951388888889e+00 6.58481614684020e-02 1.76944704120587e-02 
4.29687500000000e+00 6.53673882385378e-02 1.76168566202465e-02 
4.31423611111111e+00 6.48886544867502e-02 1.75394119005868e-02 
4.33159722222222e+00 6.44119764089913e-02 1.74621320235060e-02 
4.34895833333333e+00 6.39373493241100e-02 1.73851105564456e-02 
4.36631944444445e+00 6.34647646370222e-02 1.73084532353028e-02 
4.38368055555556e+00 6.29942118308767e-02 1.72321927850537e-02 
4.40104166666667e+00 6.25256804995426e-02 1.71562608202447e-02 
4.41840277777778e+00 6.20591260050530e-02 1.70804871549263e-02 
4.43576388888889e+00 6.15945180047173e-02 1.70047693688604e-02 
4.45312500000000e+00 6.11318553782950e-02 1.69291497416739e-02 
4.47048611111111e+00 6.06711354027064e-02 1.68536618530571e-02 
4.48784722222222e+00 6.02123556782894e-02 1.67783005564049e-02 
4.50520833333333e+00 5.97555137609725e-02 1.67030833087712e-02 
4.52256944444445e+00 5.93005470919962e-02 1.66280635977994e-02 
4.53993055555556e+00 5.88474364387811e-02 1.65533327296862e-02 
4.55729166666667e+00 5.83961739623642e-02 1.64790058793381e-02 
4.57465277777778e+00 5.79467487213264e-02 1.64051407603754e-02 
4.59201388888889e+00 5.74991495290109e-02 1.63317381498001e-02 
4.60937500000000e+00 5.70533654677940e-02 1.62587657900478e-02 
4.62673611111111e+00 5.66093894347127e-02 1.61861523669745e-02 
4.64409722222222e+00 5.61672158279716e-02 1.61137379441243e-02 
4.66145833333333e+00 5.57268446222299e-02 1.60413067468181e-02 
4.67881944444445e+00 5.52882806193924e-02 1.59687644999273e-02 
4.69618055555556e+00 5.48515284310151e-02 1.58960978012888e-02 
4.71354166666667e+00 5.44165818537915e-02 1.58232150495262e-02 
4.73090277777778e+00 5.39834206344513e-02 1.57499821150003e-02 
4.74826388888889e+00 5.35520584712195e-02 1.56763273312621e-02 
4.76562500000000e+00 5.31225093642713e-02 1.56022400288949e-02 
4.78298611111111e+00 5.26947874173990e-02 1.55277266123917e-02 
4.80034722222222e+00 5.22689062832202e-02 1.54527956407201e-02 
4.81770833333333e+00 5.18449043266499e-02 1.53774520585380e-02 
4.83506944444445e+00 5.14228171782184e-02 1.53017258885420e-02 
4.85243055555556e+00 5.10026558766582e-02 1.52256646301029e-02 
4.86979166666667e+00 5.05844307727043e-02 1.51493030994420e-02 
4.88715277777778e+00 5.01681515330667e-02 1.50726593902831e-02 
4.90451388888889e+00 4.97538275319434e-02 1.49957290411393e-02 
4.92187500000000e+00 4.93415046270937e-02 1.49185018083843e-02 
4.93923611111111e+00 4.89312035092967e-02 1.48410079812431e-02 
4.95659722222222e+00 4.85229320741226e-02 1.47632857579761e-02 
4.97395833333333e+00 4.81166975479787e-02 1.46853496246726e-02 
4.99131944444445e+00 4.77125070192870e-02 1.46072081091603e-02 
5.00868055555556e+00 4.73103672410376e-02 1.45289475858075e-02 
5.02604166666667e+00 4.69098503186937e-02 1.44507428587087e-02 
5.04340277777778e+00 4.65109601309986e-02 1.43725677911028e-02 
5.06076388888889e+00 4.61137027346469e-02 1.42943669633095e-02 
5.07812500000000e+00 4.57180851092382e-02 1.42161282100170e-02 
5.09548611111111e+00 4.53241140142958e-02 1.41378583794945e-02 
5.11284722222222e+00 4.49318661136882e-02 1.40595570948813e-02 
5.13020833333333e+00 4.45415676480475e-02 1.39812343902951e-02 
5.14756944444445e+00 4.41532206281292e-02 1.39029638144907e-02 
5.16493055555556e+00 4.37668253112561e-02 1.38247892845654e-02 
5.18229166666667e+00 4.33823812292194e-02 1.37467262571276e-02 
5.19965277777778e+00 4.29998877439122e-02 1.36687895953491e-02 
5.21701388888889e+00 4.26192959339929e-02 1.35910285062287e-02 
5.23437500000000e+00 4.22405519134519e-02 1.35134962987035e-02 
5.25173611111111e+00 4.18636524756345e-02 1.34362059897987e-02 
5.26909722222222e+00 4.14885945396242e-02 1.33591538449197e-02 
5.28645833333333e+00 4.11153750807784e-02 1.32823390229221e-02 
5.30381944444445e+00 4.07439910438468e-02 1.32057557379281e-02 
5.32118055555556e+00 4.03743002246669e-02 1.31294117047440e-02 
5.33854166666667e+00 4.00062475563382e-02 1.30532979208193e-02 
5.35590277777778e+00 3.96398325050993e-02 1.29774017314720e-02 
5.37326388888889e+00 3.92750549106165e-02 1.29017150650569e-02 
5.39062500000000e+00 3.89119146424728e-02 1.28262392011839e-02 
