Energy(eV)           EEDF(eV^-(3/2))      Anisotropy(eV^-(3/2))
1.25000000000000e-02 5.57837700419867e-01 1.50644625420120e-02 
3.75000000000000e-02 5.57355062424130e-01 1.10029626960454e-02 
6.25000000000000e-02 5.56632232569885e-01 1.87821394739762e-02 
8.75000000000000e-02 5.55746183148809e-01 2.42633521379206e-02 
1.12500000000000e-01 5.54771109557222e-01 2.74589273567718e-02 
1.37500000000000e-01 5.53763427750708e-01 2.93909812682778e-02 
1.62500000000000e-01 5.52708100282210e-01 3.07332927822118e-02 
1.87500000000000e-01 5.51656856096617e-01 3.16683570222436e-02 
2.12500000000000e-01 5.50600286967382e-01 3.24040641767084e-02 
2.37500000000000e-01 5.49520735947153e-01 3.30431333054717e-02 
2.62500000000000e-01 5.48420061285980e-01 3.41081007244049e-02 
2.87500000000000e-01 5.47283627465787e-01 3.54054344003900e-02 
3.12500000000000e-01 5.46127675195029e-01 3.56200511678095e-02 
3.37500000000000e-01 5.44979576740556e-01 3.48777621586694e-02 
3.62500000000000e-01 5.43857165899697e-01 3.39749642513179e-02 
3.87500000000000e-01 5.42751757620797e-01 3.36124246339514e-02 
4.12500000000000e-01 5.41626714841857e-01 3.40935748424750e-02 
4.37500000000000e-01 5.40462015087866e-01 3.41742204698578e-02 
4.62500000000000e-01 5.39277046932879e-01 3.34937421238575e-02 
4.87500000000000e-01 5.38131658561280e-01 3.31751042874699e-02 
5.12500000000000e-01 5.36966844151120e-01 3.36958217602053e-02 
5.37500000000000e-01 5.35767545421567e-01 3.47647685298374e-02 
5.62500000000000e-01 5.34521025096723e-01 3.55461450350220e-02 
5.87500000000000e-01 5.33228019398408e-01 3.59897949193442e-02 
6.12500000000000e-01 5.31941895350669e-01 3.73654352303567e-02 
6.37500000000000e-01 5.30580113698730e-01 3.97288392583473e-02 
6.62500000000000e-01 5.29129235644339e-01 4.21539102054376e-02 
6.87500000000000e-01 5.27598551138019e-01 4.43439851234800e-02 
7.12500000000000e-01 5.25968329697478e-01 4.65797502261600e-02 
7.37500000000000e-01 5.24270807734927e-01 4.94885990789910e-02 
7.62500000000000e-01 5.22444105331994e-01 5.30628100297782e-02 
7.87500000000000e-01 5.20471378492058e-01 5.66862801926567e-02 
8.12500000000000e-01 5.18312079298050e-01 6.02655747366649e-02 
8.37500000000000e-01 5.16035643849823e-01 6.47190252485671e-02 
8.62500000000000e-01 5.13540037062947e-01 6.99977610800243e-02 
8.87500000000000e-01 5.10802053488385e-01 7.57078934899163e-02 
9.12500000000000e-01 5.07801153714156e-01 8.17594205959719e-02 
9.37500000000000e-01 5.04525446854162e-01 8.81618504493395e-02 
9.62500000000000e-01 5.00980977625197e-01 9.50703987111964e-02 
9.87500000000000e-01 4.97128754812795e-01 1.02411084894885e-01 
1.01250000000000e+00 4.92951126373414e-01 1.09971731398957e-01 
1.03750000000000e+00 4.88345694509477e-01 1.17557053350924e-01 
1.06250000000000e+00 4.83334253341685e-01 1.25319664021205e-01 
1.08750000000000e+00 4.77868322832787e-01 1.33120097829671e-01 
1.11250000000000e+00 4.71932494188138e-01 1.40836939196158e-01 
1.13750000000000e+00 4.65525419799224e-01 1.48443733532453e-01 
1.16250000000000e+00 4.58620970693723e-01 1.55913649001132e-01 
1.18750000000000e+00 4.51231590708825e-01 1.63278413803162e-01 
1.21250000000000e+00 4.43326761477925e-01 1.70440889356060e-01 
1.23750000000000e+00 4.34787744284697e-01 1.77180057949602e-01 
1.26250000000000e+00 4.25595572266865e-01 1.83330576630870e-01 
1.28750000000000e+00 4.15763810304327e-01 1.88698909486705e-01 
1.31250000000000e+00 4.05297410451659e-01 1.93052364748284e-01 
1.33750000000000e+00 3.94166850475997e-01 1.96156142811937e-01 
1.36250000000000e+00 3.82407158119402e-01 1.97860643315073e-01 
1.38750000000000e+00 3.70083733064609e-01 1.98092117609916e-01 
1.41250000000000e+00 3.57254183275549e-01 1.96844118037421e-01 
1.43750000000000e+00 3.44001859132443e-01 1.94192145412884e-01 
1.46250000000000e+00 3.30411389797829e-01 1.90299463386362e-01 
1.48750000000000e+00 3.16580251900422e-01 1.85387825430022e-01 
1.51250000000000e+00 3.02605307682116e-01 1.79732592932730e-01 
1.53750000000000e+00 2.88747179575166e-01 1.73568378916586e-01 
1.56250000000000e+00 2.75087819312335e-01 1.67169966847607e-01 
1.58750000000000e+00 2.61695239850445e-01 1.60736529470284e-01 
1.61250000000000e+00 2.48624990236470e-01 1.54394785866239e-01 
1.63750000000000e+00 2.36012173795238e-01 1.48180215847482e-01 
1.66250000000000e+00 2.23875189351990e-01 1.42126386199929e-01 
1.68750000000000e+00 2.12210706278300e-01 1.36197133031793e-01 
1.71250000000000e+00 2.01001526026664e-01 1.30339866305804e-01 
1.73750000000000e+00 1.90363243528679e-01 1.24467157135821e-01 
1.76250000000000e+00 1.80274424431395e-01 1.18566750155992e-01 
1.78750000000000e+00 1.70716876094130e-01 1.12629863943151e-01 
1.81250000000000e+00 1.61680025838741e-01 1.06689010609005e-01 
1.83750000000000e+00 1.53158952163910e-01 1.00827992446656e-01 
1.86250000000000e+00 1.45144709864791e-01 9.51656438182100e-02 
1.88750000000000e+00 1.37627501549654e-01 8.98187335239646e-02 
1.91250000000000e+00 1.30592439112715e-01 8.48695579935046e-02 
1.93750000000000e+00 1.24095239655735e-01 8.02964941635221e-02 
1.96250000000000e+00 1.18105025556644e-01 7.60936953637387e-02 
1.98750000000000e+00 1.12594983963305e-01 7.22165981294699e-02 
2.01250000000000e+00 1.07527910289608e-01 6.85951038072679e-02 
2.03750000000000e+00 1.02866883100116e-01 6.51706266978917e-02 
2.06250000000000e+00 9.85841557106165e-02 6.19209199566497e-02 
2.08750000000000e+00 9.46428279451749e-02 5.88367227237022e-02 
2.11250000000000e+00 9.10064686366764e-02 5.58891945178424e-02 
2.13750000000000e+00 8.75930100206012e-02 5.30965987145567e-02 
2.16250000000000e+00 8.43920456458717e-02 5.04459575549351e-02 
2.18750000000000e+00 8.13893637796361e-02 4.79301386631369e-02 
2.21250000000000e+00 7.85812020040796e-02 4.55398567130989e-02 
2.23750000000000e+00 7.59526629408648e-02 4.32891663543224e-02 
2.26250000000000e+00 7.35011371326521e-02 4.11828368998635e-02 
2.28750000000000e+00 7.12168089370539e-02 3.92184689156974e-02 
2.31250000000000e+00 6.90840040870378e-02 3.73914769607680e-02 
2.33750000000000e+00 6.70892729278162e-02 3.56909294593987e-02 
2.36250000000000e+00 6.52111876965146e-02 3.41002313518668e-02 
2.38750000000000e+00 6.34389035810203e-02 3.25962293452455e-02 
2.41250000000000e+00 6.17619716061738e-02 3.11698876602344e-02 
2.43750000000000e+00 6.01801906778719e-02 2.98137945169998e-02 
2.46250000000000e+00 5.86889702033873e-02 2.85321923109796e-02 
2.48750000000000e+00 5.72918882744020e-02 2.73300171347933e-02 
2.51250000000000e+00 5.59827589818116e-02 2.62127568239918e-02 
2.53750000000000e+00 5.47463047702479e-02 2.51815082309894e-02 
2.56250000000000e+00 5.35741561113922e-02 2.42272581214344e-02 
2.58750000000000e+00 5.24583287064418e-02 2.33360968264203e-02 
2.61250000000000e+00 5.13910956413077e-02 2.24917165287003e-02 
2.63750000000000e+00 5.03682850045377e-02 2.16824817516231e-02 
2.66250000000000e+00 4.93895043997194e-02 2.09036454068479e-02 
2.68750000000000e+00 4.84534493289726e-02 2.01582074190354e-02 
2.71250000000000e+00 4.75614774749460e-02 1.94523938660517e-02 
2.73750000000000e+00 4.67115968220857e-02 1.87948464126070e-02 
2.76250000000000e+00 4.59025670214788e-02 1.81867129482872e-02 
2.78750000000000e+00 4.51282285979472e-02 1.76238649514710e-02 
2.81250000000000e+00 4.43856324292521e-02 1.70960725603670e-02 
2.83750000000000e+00 4.36684706437118e-02 1.65962664449846e-02 
2.86250000000000e+00 4.29759444599340e-02 1.61168204525441e-02 
2.88750000000000e+00 4.23059541515853e-02 1.56562454347867e-02 
2.91250000000000e+00 4.16596193315742e-02 1.52166373791956e-02 
2.93750000000000e+00 4.10360770472130e-02 1.48029195715490e-02 
2.96250000000000e+00 4.04348143629929e-02 1.44173616801783e-02 
2.98750000000000e+00 3.98537278231095e-02 1.40597032391402e-02 
3.01250000000000e+00 3.92909485757568e-02 1.37260420843732e-02 
3.03750000000000e+00 3.87443856610034e-02 1.34109366882069e-02 
3.06250000000000e+00 3.82125988068314e-02 1.31094145212294e-02 
3.08750000000000e+00 3.76948842712517e-02 1.28186422120835e-02 
3.11250000000000e+00 3.71909652861856e-02 1.25380964268617e-02 
3.13750000000000e+00 3.67008873283126e-02 1.22695065101028e-02 
3.16250000000000e+00 3.62241042893042e-02 1.20157833589728e-02 
3.18750000000000e+00 3.57602185452657e-02 1.17779003246373e-02 
3.21250000000000e+00 3.53079093566841e-02 1.15546105078226e-02 
3.23750000000000e+00 3.48664871655126e-02 1.13431368887295e-02 
3.26250000000000e+00 3.44349175814353e-02 1.11403300470369e-02 
3.28750000000000e+00 3.40128590303286e-02 1.09434356349314e-02 
3.31250000000000e+00 3.35998926527506e-02 1.07517226911849e-02 
3.33750000000000e+00 3.31959105494130e-02 1.05656148591657e-02 
3.36250000000000e+00 3.28006313074970e-02 1.03857433321982e-02 
3.38750000000000e+00 3.24138998818711e-02 1.02122939891437e-02 
3.41250000000000e+00 3.20351926789976e-02 1.00450378438842e-02 
3.43750000000000e+00 3.16641653687806e-02 9.88319095855246e-03 
3.46250000000000e+00 3.13003336915274e-02 9.72567662668027e-03 
3.48750000000000e+00 3.09434676189880e-02 9.57149221605380e-03 
3.51250000000000e+00 3.05933615915460e-02 9.42041926153553e-03 
3.53750000000000e+00 3.02499723915038e-02 9.27268610658434e-03 
3.56250000000000e+00 2.99131356041670e-02 9.12885133709230e-03 
3.58750000000000e+00 2.95827435197045e-02 8.98999273818964e-03 
3.61250000000000e+00 2.92586617055721e-02 8.85730403854184e-03 
3.63750000000000e+00 2.89406342643888e-02 8.73058373384854e-03 
3.66250000000000e+00 2.86283914583607e-02 8.60834053106216e-03 
3.68750000000000e+00 2.83218347445367e-02 8.48955119037888e-03 
3.71250000000000e+00 2.80207683509429e-02 8.37415595111049e-03 
3.73750000000000e+00 2.77250880238406e-02 8.26234231930489e-03 
3.76250000000000e+00 2.74346041778800e-02 8.15401948937441e-03 
3.78750000000000e+00 2.71491828532031e-02 8.04873569378315e-03 
3.81250000000000e+00 2.68686237652173e-02 7.94621379687301e-03 
3.83750000000000e+00 2.65927426181020e-02 7.84629669766226e-03 
3.86250000000000e+00 2.63213720583373e-02 7.74873346206057e-03 
3.88750000000000e+00 2.60544009878456e-02 7.65326131624366e-03 
3.91250000000000e+00 2.57916674383908e-02 7.55997582928101e-03 
3.93750000000000e+00 2.55331896324683e-02 7.46913994027431e-03 
3.96250000000000e+00 2.52788451889570e-02 7.38091169541856e-03 
3.98750000000000e+00 2.50285882018794e-02 7.29534604407219e-03 
4.01250000000000e+00 2.47823483766763e-02 7.21242919400060e-03 
4.03750000000000e+00 2.45394756521706e-02 7.13219525354824e-03 
4.06250000000000e+00 2.42998459485083e-02 7.05448086310891e-03 
4.08750000000000e+00 2.40634741045211e-02 6.97912597149305e-03 
4.11250000000000e+00 2.38302615384160e-02 6.90604922460139e-03 
4.13750000000000e+00 2.36000437234995e-02 6.83515716554441e-03 
4.16250000000000e+00 2.33727359752014e-02 6.76629817523224e-03 
4.18750000000000e+00 2.31482563465970e-02 6.69937735516148e-03 
4.21250000000000e+00 2.29265151995621e-02 6.63439416507706e-03 
4.23750000000000e+00 2.27074925550582e-02 6.57135307253723e-03 
4.26250000000000e+00 2.24910950464328e-02 6.51026511203795e-03 
4.28750000000000e+00 2.22772388012832e-02 6.45114242445550e-03 
4.31250000000000e+00 2.20658437298126e-02 6.39396370574425e-03 
4.33750000000000e+00 2.18568408790062e-02 6.33867602964414e-03 
4.36250000000000e+00 2.16501568361095e-02 6.28519499187199e-03 
4.38750000000000e+00 2.14457197944482e-02 6.23338860619005e-03 
4.41250000000000e+00 2.12434631329477e-02 6.18313648612356e-03 
4.43750000000000e+00 2.10433117300585e-02 6.13434651702942e-03 
4.46250000000000e+00 2.08452673848791e-02 6.08694369413269e-03 
4.48750000000000e+00 2.06492732239933e-02 6.04089024348750e-03 
4.51250000000000e+00 2.04552751209088e-02 5.99600040909594e-03 
4.53750000000000e+00 2.02632365405638e-02 5.95199601405476e-03 
4.56250000000000e+00 2.00732926796982e-02 5.90876346304322e-03 
4.58750000000000e+00 1.98854045490361e-02 5.86632829243622e-03 
4.61250000000000e+00 1.96995341499444e-02 5.82463128328935e-03 
4.63750000000000e+00 1.95156375416115e-02 5.78357380992839e-03 
4.66250000000000e+00 1.93336918415675e-02 5.74307913083036e-03 
4.68750000000000e+00 1.91536677065774e-02 5.70311593876139e-03 
4.71250000000000e+00 1.89755374463928e-02 5.66366085978817e-03 
4.73750000000000e+00 1.87992622158917e-02 5.62471092499857e-03 
4.76250000000000e+00 1.86248155004807e-02 5.58644233056646e-03 
4.78750000000000e+00 1.84521604988524e-02 5.54916819437177e-03 
4.81250000000000e+00 1.82812516968226e-02 5.51302798193002e-03 
4.83750000000000e+00 1.81120566652421e-02 5.47802268105051e-03 
4.86250000000000e+00 1.79445494112127e-02 5.44415364927197e-03 
4.88750000000000e+00 1.77786855986219e-02 5.41140354005133e-03 
4.91250000000000e+00 1.76144224164114e-02 5.37960262892944e-03 
4.93750000000000e+00 1.74516830480842e-02 5.34845753952637e-03 
4.96250000000000e+00 1.72904475464475e-02 5.31781604297125e-03 
4.98750000000000e+00 1.71306941024975e-02 5.28766659515671e-03 
5.01250000000000e+00 1.69724004948676e-02 5.25800083947136e-03 
5.03750000000000e+00 1.68154026861039e-02 5.22892505415343e-03 
5.06250000000000e+00 1.66596693416231e-02 5.20058787776886e-03 
5.08750000000000e+00 1.65051497650808e-02 5.17300801852741e-03 
5.11250000000000e+00 1.63518086706001e-02 5.14600602387013e-03 
5.13750000000000e+00 1.61996035199094e-02 5.11935670714295e-03 
5.16250000000000e+00 1.60485225917133e-02 5.09296193604234e-03 
5.18750000000000e+00 1.58985816785308e-02 5.06681810410540e-03 
5.21250000000000e+00 1.57497714864445e-02 5.04090928714536e-03 
5.23750000000000e+00 1.56020667011855e-02 5.01520689150527e-03 
5.26250000000000e+00 1.54554571898236e-02 4.98969228037082e-03 
5.28750000000000e+00 1.53099340461894e-02 4.96436057022537e-03 
5.31250000000000e+00 1.51654896301692e-02 4.93920777718448e-03 
5.33750000000000e+00 1.50220993175555e-02 4.91423244421605e-03 
5.36250000000000e+00 1.48797541701790e-02 4.88943084255269e-03 
5.38750000000000e+00 1.47384452470783e-02 4.86479996702289e-03 
5.41250000000000e+00 1.45981639700868e-02 4.84033142371121e-03 
5.43750000000000e+00 1.44589021478674e-02 4.81602811559411e-03 
5.46250000000000e+00 1.43206508117939e-02 4.79191422860856e-03 
5.48750000000000e+00 1.41834005323533e-02 4.76800342774571e-03 
5.51250000000000e+00 1.40471419844089e-02 4.74427819594595e-03 
5.53750000000000e+00 1.39118887603622e-02 4.72070268478796e-03 
5.56250000000000e+00 1.37776336408221e-02 4.69726110396993e-03 
5.58750000000000e+00 1.36443689406254e-02 4.67395400373924e-03 
5.61250000000000e+00 1.35120870445525e-02 4.65078173513351e-03 
5.63750000000000e+00 1.33807733947681e-02 4.62775070606083e-03 
5.66250000000000e+00 1.32504203864634e-02 4.60487241171191e-03 
5.68750000000000e+00 1.31210201219560e-02 4.58215183856532e-03 
5.71250000000000e+00 1.29925647408960e-02 4.55958775376440e-03 
5.73750000000000e+00 1.28650534659947e-02 4.53717240673914e-03 
5.76250000000000e+00 1.27384788537262e-02 4.51489691636298e-03 
5.78750000000000e+00 1.26128336840709e-02 4.49276240800245e-03 
5.81250000000000e+00 1.24881105996064e-02 4.47076576312119e-03 
5.83750000000000e+00 1.23642959555696e-02 4.44890207859580e-03 
5.86250000000000e+00 1.22413828685957e-02 4.42718516181132e-03 
5.88750000000000e+00 1.21193635845911e-02 4.40563222289587e-03 
5.91250000000000e+00 1.19982222444964e-02 4.38425166461620e-03 
5.93750000000000e+00 1.18779028781338e-02 4.36305439471413e-03 
5.96250000000000e+00 1.17583979749703e-02 4.34203848535787e-03 
5.98750000000000e+00 1.16397000970195e-02 4.32120115585328e-03 
6.01250000000000e+00 1.15218019076747e-02 4.30048463551978e-03 
6.03750000000000e+00 1.14045177431918e-02 4.27979046209711e-03 
6.06250000000000e+00 1.12878211997057e-02 4.25903884613354e-03 
6.08750000000000e+00 1.11717128621605e-02 4.23821948847427e-03 
6.11250000000000e+00 1.10561941149046e-02 4.21734190933444e-03 
6.13750000000000e+00 1.09412942155571e-02 4.19641819801506e-03 
6.16250000000000e+00 1.08270137895286e-02 4.17545604789529e-03 
6.18750000000000e+00 1.07133534059106e-02 4.15445674854153e-03 
6.21250000000000e+00 1.06003133370312e-02 4.13341226798763e-03 
6.23750000000000e+00 1.04878948070699e-02 4.11231092431338e-03 
6.26250000000000e+00 1.03760987844604e-02 4.09116013135845e-03 
6.28750000000000e+00 1.02649257392055e-02 4.06997119329815e-03 
6.31250000000000e+00 1.01543760038767e-02 4.04875073766159e-03 
6.33750000000000e+00 1.00444496287012e-02 4.02750130974680e-03 
6.36250000000000e+00 9.93514684949934e-03 4.00621642477374e-03 
6.38750000000000e+00 9.82646814753041e-03 3.98489383208258e-03 
6.41250000000000e+00 9.71841388388475e-03 3.96352028192587e-03 
6.43750000000000e+00 9.61098599874517e-03 3.94207076852512e-03 
6.46250000000000e+00 9.50418620161479e-03 3.92054322847997e-03 
6.48750000000000e+00 9.39801577852904e-03 3.89894766633775e-03 
6.51250000000000e+00 9.29247591919041e-03 3.87729607466407e-03 
6.53750000000000e+00 9.18756709813733e-03 3.85560403356969e-03 
6.56250000000000e+00 9.08328964913844e-03 3.83387732143951e-03 
6.58750000000000e+00 8.97964399204608e-03 3.81211771155072e-03 
6.61250000000000e+00 8.87663037528776e-03 3.79032300849806e-03 
6.63750000000000e+00 8.77425368148360e-03 3.76848639201827e-03 
6.66250000000000e+00 8.67251445730805e-03 3.74661055702606e-03 
6.68750000000000e+00 8.57141301070652e-03 3.72470207833908e-03 
6.71250000000000e+00 8.47094955135611e-03 3.70277078351809e-03 
6.73750000000000e+00 8.37112368443481e-03 3.68083209496143e-03 
6.76250000000000e+00 8.27193478717436e-03 3.65889665299416e-03 
6.78750000000000e+00 8.17338207790172e-03 3.63696902130812e-03 
6.81250000000000e+00 8.07546468649225e-03 3.61505623082066e-03 
6.83750000000000e+00 7.97817971567741e-03 3.59316300303589e-03 
6.86250000000000e+00 7.88152611957028e-03 3.57128454258695e-03 
6.88750000000000e+00 7.78550286592095e-03 3.54941879528341e-03 
6.91250000000000e+00 7.69010899997167e-03 3.52756691578942e-03 
6.93750000000000e+00 7.59531636885314e-03 3.50573069701673e-03 
6.96250000000000e+00 7.50112443115169e-03 3.48390667787287e-03 
6.98750000000000e+00 7.40753262321023e-03 3.46209720933978e-03 
7.01250000000000e+00 7.31453966094003e-03 3.44027525208369e-03 
7.03750000000000e+00 7.22211820739316e-03 3.41839005184202e-03 
7.06250000000000e+00 7.13027083554155e-03 3.39641739291616e-03 
7.08750000000000e+00 7.03899995009410e-03 3.37436478538344e-03 
7.11250000000000e+00 6.94830776756983e-03 3.35210833994909e-03 
7.13750000000000e+00 6.85812184452969e-03 3.32942406323494e-03 
7.16250000000000e+00 6.76845816265246e-03 3.30621144780385e-03 
7.18750000000000e+00 6.67933184591984e-03 3.28249696810414e-03 
7.21250000000000e+00 6.59075753279218e-03 3.25830513633713e-03 
7.23750000000000e+00 6.50274890899696e-03 3.23365924883255e-03 
7.26250000000000e+00 6.41531949091957e-03 3.20857415810427e-03 
7.28750000000000e+00 6.32848248295769e-03 3.18306542185968e-03 
7.31250000000000e+00 6.24225059434698e-03 3.15714797844031e-03 
7.33750000000000e+00 6.15663655033372e-03 3.13083217776910e-03 
7.36250000000000e+00 6.07165258317761e-03 3.10413314583694e-03 
7.38750000000000e+00 5.98731040457188e-03 3.07707010484484e-03 
7.41250000000000e+00 5.90362124908005e-03 3.04969149336671e-03 
7.43750000000000e+00 5.82060671550884e-03 3.02207041863089e-03 
7.46250000000000e+00 5.73827373252233e-03 2.99425347189371e-03 
7.48750000000000e+00 5.65662881364229e-03 2.96625594495226e-03 
7.51250000000000e+00 5.57567810719596e-03 2.93809143343358e-03 
7.53750000000000e+00 5.49542744115642e-03 2.90977268549632e-03 
7.56250000000000e+00 5.41588228399209e-03 2.88131196683769e-03 
7.58750000000000e+00 5.33704778906073e-03 2.85272187667185e-03 
7.61250000000000e+00 5.25892876245824e-03 2.82401547742526e-03 
7.63750000000000e+00 5.18152966332307e-03 2.79520531521372e-03 
7.66250000000000e+00 5.10485461201153e-03 2.76630282087753e-03 
7.68750000000000e+00 5.02890745389448e-03 2.73731935474800e-03 
7.71250000000000e+00 4.95369171561677e-03 2.70826681697160e-03 
7.73750000000000e+00 4.87922333647420e-03 2.67914912127167e-03 
7.76250000000000e+00 4.80550522809064e-03 2.64997096266740e-03 
