Energy(eV)           EEDF(eV^-(3/2))      Anisotropy(eV^-(3/2))
8.68055555555556e-03 2.13391246530089e-01 -1.89053918949089e-03 
2.60416666666667e-02 2.13419333773132e-01 -8.21683500116812e-04 
4.34027777777778e-02 2.13443927990101e-01 -2.17209238232895e-04 
6.07638888888889e-02 2.13465589244647e-01 1.40508172744716e-04 
7.81250000000000e-02 2.13484066696574e-01 4.06496704234064e-04 
9.54861111111111e-02 2.13499182329601e-01 6.43794787602212e-04 
1.12847222222222e-01 2.13510715981658e-01 8.62963228781637e-04 
1.30208333333333e-01 2.13518492016284e-01 1.07548110702850e-03 
1.47569444444444e-01 2.13522153011238e-01 1.88481661712124e-03 
1.64930555555556e-01 2.13502641053172e-01 3.24430106792327e-03 
1.82291666666667e-01 2.13457691622860e-01 3.97584442224909e-03 
1.99652777777778e-01 2.13406311441703e-01 4.28244064932732e-03 
2.17013888888889e-01 2.13342739854643e-01 4.72963666731817e-03 
2.34375000000000e-01 2.13267072673828e-01 4.96547863368905e-03 
2.51736111111111e-01 2.13186726014286e-01 5.02811074988041e-03 
2.69097222222222e-01 2.13100736146137e-01 6.52341267751890e-03 
2.86458333333333e-01 2.12948052008792e-01 9.36981699086651e-03 
3.03819444444445e-01 2.12724679650538e-01 1.07872866563385e-02 
3.21180555555556e-01 2.12493204094842e-01 1.09403091765596e-02 
3.38541666666667e-01 2.12229594401960e-01 1.11443456524460e-02 
3.55902777777778e-01 2.11971830950251e-01 1.11809965048257e-02 
3.73263888888889e-01 2.11712707128288e-01 1.11360649632522e-02 
3.90625000000000e-01 2.11446518356963e-01 1.26834932982535e-02 
4.07986111111111e-01 2.11093169185224e-01 1.56522906195879e-02 
4.25347222222222e-01 2.10655634183367e-01 1.75719536494201e-02 
4.42708333333333e-01 2.10184628091355e-01 1.77682889085428e-02 
4.60069444444445e-01 2.09624104290462e-01 1.67853417065917e-02 
4.77430555555556e-01 2.09191678595100e-01 1.58532588136398e-02 
4.94791666666667e-01 2.08761205377612e-01 1.58171469478021e-02 
5.12152777777778e-01 2.08323627375100e-01 1.69809163325568e-02 
5.29513888888889e-01 2.07816559520533e-01 1.93648939363870e-02 
5.46875000000000e-01 2.07233427112021e-01 2.09500314963159e-02 
5.64236111111111e-01 2.06626058182527e-01 2.02740236241460e-02 
5.81597222222222e-01 2.05925745812005e-01 1.84657695062995e-02 
5.98958333333333e-01 2.05431934171998e-01 1.72795454539140e-02 
6.16319444444445e-01 2.04938624339503e-01 1.80789241103850e-02 
6.33680555555556e-01 2.04412902679328e-01 1.97411818639295e-02 
6.51041666666667e-01 2.03848669878013e-01 2.09670819793853e-02 
6.68402777777778e-01 2.03280913336442e-01 2.15568128841135e-02 
6.85763888888889e-01 2.02712684943317e-01 2.08367433973971e-02 
7.03125000000000e-01 2.02067049554958e-01 1.91537101298061e-02 
7.20486111111111e-01 2.01618592350998e-01 1.82395995283983e-02 
7.37847222222222e-01 2.01161590154800e-01 1.88724228619413e-02 
7.55208333333333e-01 2.00684556015129e-01 1.95895468046922e-02 
7.72569444444445e-01 2.00194930058886e-01 2.00562358664314e-02 
7.89930555555556e-01 1.99698414730667e-01 1.94917652127729e-02 
8.07291666666667e-01 1.99130259411525e-01 1.79495883422502e-02 
8.24652777777778e-01 1.98673651200104e-01 1.68056976331650e-02 
8.42013888888889e-01 1.98219900381790e-01 1.68799174875911e-02 
8.59375000000000e-01 1.97729438077366e-01 1.73517062556162e-02 
8.76736111111111e-01 1.97194418737262e-01 1.78699397173567e-02 
8.94097222222222e-01 1.96616765871763e-01 1.80259398059780e-02 
9.11458333333334e-01 1.95996042275186e-01 1.75156743496583e-02 
9.28819444444445e-01 1.95382904457265e-01 1.68519752989038e-02 
9.46180555555556e-01 1.94819096112861e-01 1.66971886018858e-02 
9.63541666666667e-01 1.94242339571292e-01 1.69362426721986e-02 
9.80902777777778e-01 1.93648623922430e-01 1.72496839790855e-02 
9.98263888888889e-01 1.93036223587688e-01 1.75221510356643e-02 
1.01562500000000e+00 1.92409913154803e-01 1.75435206754292e-02 
1.03298611111111e+00 1.91764698147275e-01 1.72257424016720e-02 
1.05034722222222e+00 1.91132843992491e-01 1.69268940016990e-02 
1.06770833333333e+00 1.90519020134821e-01 1.69700362604383e-02 
1.08506944444444e+00 1.89891872756567e-01 1.71816020268619e-02 
1.10243055555556e+00 1.89251540784238e-01 1.73693130284864e-02 
1.11979166666667e+00 1.88599449505597e-01 1.75274757604062e-02 
1.13715277777778e+00 1.87936219074414e-01 1.75401551968214e-02 
1.15451388888889e+00 1.87255506618883e-01 1.74225623109555e-02 
1.17187500000000e+00 1.86590811707613e-01 1.74524270218978e-02 
1.18923611111111e+00 1.85913748533656e-01 1.76308576761050e-02 
1.20659722222222e+00 1.85224099283332e-01 1.77974067515942e-02 
1.22395833333333e+00 1.84527385037817e-01 1.79256711681995e-02 
1.24131944444444e+00 1.83823346574985e-01 1.79850928749646e-02 
1.25868055555556e+00 1.83115725007599e-01 1.80244647404214e-02 
1.27604166666667e+00 1.82410873494367e-01 1.81330942078720e-02 
1.29340277777778e+00 1.81699538670660e-01 1.82864315545205e-02 
1.31076388888889e+00 1.80982097583445e-01 1.84343054382745e-02 
1.32812500000000e+00 1.80261007060740e-01 1.85789441505545e-02 
1.34548611111111e+00 1.79536232737365e-01 1.86998414164738e-02 
1.36284722222222e+00 1.78806135914243e-01 1.87977962932771e-02 
1.38020833333333e+00 1.78077840993091e-01 1.89260295284127e-02 
1.39756944444444e+00 1.77345543593309e-01 1.90818384014809e-02 
1.41493055555556e+00 1.76609293967079e-01 1.92360410385893e-02 
1.43229166666667e+00 1.75869263816810e-01 1.93852118998983e-02 
1.44965277777778e+00 1.75125566317327e-01 1.95208677749348e-02 
1.46701388888889e+00 1.74378223093008e-01 1.96460397290528e-02 
1.48437500000000e+00 1.73629470153423e-01 1.97769474766802e-02 
1.50173611111111e+00 1.72877689027910e-01 1.99116826810608e-02 
1.51909722222222e+00 1.72123062575073e-01 2.00431506043597e-02 
1.53645833333333e+00 1.71365710643039e-01 2.01694788636885e-02 
1.55381944444444e+00 1.70605498020716e-01 2.02887529712086e-02 
1.57118055555556e+00 1.69843282139295e-01 2.04070536939360e-02 
1.58854166666667e+00 1.69079150748546e-01 2.05287249741173e-02 
1.60590277777778e+00 1.68312691801053e-01 2.06507575125111e-02 
1.62326388888889e+00 1.67544009602742e-01 2.07707932995541e-02 
1.64062500000000e+00 1.66773179634444e-01 2.08867272096334e-02 
1.65798611111111e+00 1.66000168039097e-01 2.09985665853637e-02 
1.67534722222222e+00 1.65225686261745e-01 2.11105598466045e-02 
1.69270833333333e+00 1.64449442902571e-01 2.12231707380205e-02 
1.71006944444444e+00 1.63671506618735e-01 2.13341264657762e-02 
1.72743055555556e+00 1.62892692415528e-01 2.14428721779076e-02 
1.74479166666667e+00 1.62113120519776e-01 2.15493187157440e-02 
1.76215277777778e+00 1.61332908046394e-01 2.16535071768412e-02 
1.77951388888889e+00 1.60552169794403e-01 2.17554698628810e-02 
1.79687500000000e+00 1.59771018367411e-01 2.18551785196499e-02 
1.81423611111111e+00 1.58989569815165e-01 2.19523865843948e-02 
1.83159722222222e+00 1.58207955201750e-01 2.20467756584390e-02 
1.84895833333333e+00 1.57426308950346e-01 2.21382781239854e-02 
1.86631944444444e+00 1.56644761788663e-01 2.22269721043135e-02 
1.88368055555556e+00 1.55863441066885e-01 2.23129099165608e-02 
1.90104166666667e+00 1.55082471201989e-01 2.23961684268076e-02 
1.91840277777778e+00 1.54301524015352e-01 2.24767900681999e-02 
1.93576388888889e+00 1.53520360637834e-01 2.25547947704439e-02 
1.95312500000000e+00 1.52739091498909e-01 2.26302191805214e-02 
1.97048611111111e+00 1.51957823144227e-01 2.27030118164472e-02 
1.98784722222222e+00 1.51176652295156e-01 2.27730495803135e-02 
2.00520833333333e+00 1.50395693889781e-01 2.28403136515491e-02 
2.02256944444445e+00 1.49615060997880e-01 2.29048576011559e-02 
2.03993055555556e+00 1.48834863290239e-01 2.29667160529207e-02 
2.05729166666667e+00 1.48055208006290e-01 2.30259298714048e-02 
2.07465277777778e+00 1.47276199730539e-01 2.30825445365797e-02 
2.09201388888889e+00 1.46497940720262e-01 2.31366058348020e-02 
2.10937500000000e+00 1.45720494757801e-01 2.31881368243263e-02 
2.12673611111111e+00 1.44943098374214e-01 2.32370244801740e-02 
2.14409722222222e+00 1.44165851422408e-01 2.32832434085529e-02 
2.16145833333333e+00 1.43388851116505e-01 2.33268464497231e-02 
2.17881944444445e+00 1.42612192470873e-01 2.33678754344347e-02 
2.19618055555556e+00 1.41835968701054e-01 2.34063255686257e-02 
2.21354166666667e+00 1.41060222388590e-01 2.34420728052021e-02 
2.23090277777778e+00 1.40284920801944e-01 2.34749319041481e-02 
2.24826388888889e+00 1.39510170501178e-01 2.35048227712079e-02 
2.26562500000000e+00 1.38736075574459e-01 2.35317612964633e-02 
2.28298611111111e+00 1.37962738370173e-01 2.35557887473355e-02 
2.30034722222222e+00 1.37190258881078e-01 2.35769554039869e-02 
2.31770833333333e+00 1.36418777646360e-01 2.35953024745328e-02 
2.33506944444445e+00 1.35648430330173e-01 2.36108691000969e-02 
2.35243055555556e+00 1.34879310998930e-01 2.36237057289240e-02 
2.36979166666667e+00 1.34111511256313e-01 2.36338629749807e-02 
2.38715277777778e+00 1.33345120604176e-01 2.36413919366270e-02 
2.40451388888889e+00 1.32580226070893e-01 2.36462882415966e-02 
2.42187500000000e+00 1.31818415299848e-01 2.36485848519185e-02 
2.43923611111111e+00 1.31060246160132e-01 2.36483748188031e-02 
2.45659722222222e+00 1.30305799466928e-01 2.36457193155790e-02 
2.47395833333333e+00 1.29555153385176e-01 2.36406616607396e-02 
2.49131944444445e+00 1.28808383626687e-01 2.36332448803016e-02 
2.50868055555556e+00 1.28065563326260e-01 2.36235847348531e-02 
2.52604166666667e+00 1.27324589329747e-01 2.36117039568080e-02 
2.54340277777778e+00 1.26585534044030e-01 2.35975331102455e-02 
2.56076388888889e+00 1.25848467993774e-01 2.35811170634330e-02 
2.57812500000000e+00 1.25113459833091e-01 2.35625005708769e-02 
2.59548611111111e+00 1.24380576327714e-01 2.35417376329930e-02 
2.61284722222222e+00 1.23649943230545e-01 2.35188827833605e-02 
2.63020833333333e+00 1.22921817106030e-01 2.34939916478807e-02 
2.64756944444445e+00 1.22196257333414e-01 2.34671222750061e-02 
2.66493055555556e+00 1.21473321491465e-01 2.34383151661482e-02 
2.68229166666667e+00 1.20753065513120e-01 2.34076083769112e-02 
2.69965277777778e+00 1.20035543708394e-01 2.33750542302303e-02 
2.71701388888889e+00 1.19320808553119e-01 2.33407351447543e-02 
2.73437500000000e+00 1.18608909114306e-01 2.33047358168349e-02 
2.75173611111111e+00 1.17899891122715e-01 2.32671093281593e-02 
2.76909722222222e+00 1.17193798854863e-01 2.32278882361291e-02 
2.78645833333333e+00 1.16490675295570e-01 2.31870972615158e-02 
2.80381944444445e+00 1.15790562497323e-01 2.31447624223982e-02 
2.82118055555556e+00 1.15092828313595e-01 2.31009074558957e-02 
2.83854166666667e+00 1.14397256578597e-01 2.30554718935786e-02 
2.85590277777778e+00 1.13703896108750e-01 2.30083876795164e-02 
2.87326388888889e+00 1.13012794734605e-01 2.29596499320187e-02 
2.89062500000000e+00 1.12323999017420e-01 2.29092908657254e-02 
2.90798611111111e+00 1.11637554470259e-01 2.28573491410094e-02 
2.92534722222222e+00 1.10953536971622e-01 2.28038774745724e-02 
2.94270833333333e+00 1.10271989581997e-01 2.27489227362696e-02 
2.96006944444445e+00 1.09592952860761e-01 2.26925157610398e-02 
2.97743055555556e+00 1.08916466323484e-01 2.26346843420253e-02 
2.99479166666667e+00 1.08242568497384e-01 2.25754662656101e-02 
3.01215277777778e+00 1.07571281094172e-01 2.25149213015014e-02 
3.02951388888889e+00 1.06902578264111e-01 2.24531435688156e-02 
3.04687500000000e+00 1.06236486894599e-01 2.23902657154859e-02 
3.06423611111111e+00 1.05573033023309e-01 2.23263994383660e-02 
3.08159722222222e+00 1.04912241170723e-01 2.22615859960417e-02 
3.09895833333333e+00 1.04254135357510e-01 2.21958445332576e-02 
3.11631944444445e+00 1.03598727524288e-01 2.21292033348112e-02 
3.13368055555556e+00 1.02946025626326e-01 2.20616920769867e-02 
3.15104166666667e+00 1.02296051033122e-01 2.19933352422789e-02 
3.16840277777778e+00 1.01648824353975e-01 2.19241548059453e-02 
3.18576388888889e+00 1.01004365464037e-01 2.18541766314196e-02 
3.20312500000000e+00 1.00362693230735e-01 2.17834407631350e-02 
3.22048611111111e+00 9.97244957272486e-02 2.17119792081685e-02 
3.23784722222222e+00 9.90900996944481e-02 2.16398184996279e-02 
3.25520833333333e+00 9.84595185223373e-02 2.15668981824147e-02 
3.27256944444445e+00 9.78327647442524e-02 2.14931859152787e-02 
3.28993055555556e+00 9.72098501028898e-02 2.14186991615394e-02 
3.30729166666667e+00 9.65907857369492e-02 2.13434860785536e-02 
3.32465277777778e+00 9.59741311565435e-02 2.12676677630976e-02 
3.34201388888889e+00 9.53597796475388e-02 2.11911718179431e-02 
3.35937500000000e+00 9.47477503975840e-02 2.11140097085276e-02 
3.37673611111111e+00 9.41380620011815e-02 2.10362009267296e-02 
3.39409722222222e+00 9.35307324946242e-02 2.09577615007615e-02 
3.41145833333333e+00 9.29257758750477e-02 2.08787097278097e-02 
3.42881944444445e+00 9.23231900643516e-02 2.07991004816004e-02 
3.44618055555556e+00 9.17229870730003e-02 2.07190177507967e-02 
3.46354166666667e+00 9.11251785218350e-02 2.06385258327641e-02 
3.48090277777778e+00 9.05297752703960e-02 2.05576518116166e-02 
3.49826388888889e+00 8.99367878737877e-02 2.04764055556436e-02 
3.51562500000000e+00 8.93462174423328e-02 2.03947964596389e-02 
3.53298611111111e+00 8.87580603733999e-02 2.03128341307162e-02 
3.55034722222222e+00 8.81723265662239e-02 2.02305290092569e-02 
3.56770833333333e+00 8.75890255430635e-02 2.01478934919697e-02 
3.58506944444445e+00 8.70081664636278e-02 2.00649428757026e-02 
3.60243055555556e+00 8.64297579194913e-02 1.99817043337078e-02 
3.61979166666667e+00 8.58537779394270e-02 1.98982097200973e-02 
3.63715277777778e+00 8.52802180207381e-02 1.98144779514449e-02 
3.65451388888889e+00 8.47090869502902e-02 1.97305460725210e-02 
3.67187500000000e+00 8.41403897021709e-02 1.96464707615197e-02 
3.68923611111111e+00 8.35741297206301e-02 1.95622801159794e-02 
3.70659722222222e+00 8.30103103417568e-02 1.94779804585798e-02 
3.72395833333333e+00 8.24485692018972e-02 1.93936081490313e-02 
3.74131944444445e+00 8.18888625559155e-02 1.93091353899175e-02 
3.75868055555556e+00 8.13311973306640e-02 1.92245350460916e-02 
3.77604166666667e+00 8.07755812203901e-02 1.91397960650793e-02 
3.79340277777778e+00 8.02220218188514e-02 1.90549324072863e-02 
3.81076388888889e+00 7.96705286321169e-02 1.89700198731207e-02 
3.82812500000000e+00 7.91211238635271e-02 1.88852300499025e-02 
3.84548611111111e+00 7.85738018320174e-02 1.88007925377204e-02 
3.86284722222222e+00 7.80285514835033e-02 1.87168778943551e-02 
3.88020833333333e+00 7.74853592618063e-02 1.86335349349889e-02 
3.89756944444445e+00 7.69442117378768e-02 1.85507582750778e-02 
3.91493055555556e+00 7.64050965970638e-02 1.84685485087899e-02 
3.93229166666667e+00 7.58680020493657e-02 1.83869237497079e-02 
3.94965277777778e+00 7.53329136236089e-02 1.83059393493376e-02 
3.96701388888889e+00 7.47998144235191e-02 1.82256672792855e-02 
3.98437500000000e+00 7.42686856429829e-02 1.81461331891068e-02 
4.00173611111111e+00 7.37395087949415e-02 1.80672144875491e-02 
4.01909722222222e+00 7.32124580104724e-02 1.79886072527213e-02 
4.03645833333333e+00 7.26876543816446e-02 1.79101557548931e-02 
4.05381944444445e+00 7.21650949783463e-02 1.78319999079847e-02 
4.07118055555556e+00 7.16447680031732e-02 1.77542958325386e-02 
4.08854166666667e+00 7.11266593652630e-02 1.76770789185862e-02 
4.10590277777778e+00 7.06107551618491e-02 1.76003761140148e-02 
4.12326388888889e+00 7.00964239906983e-02 1.75242768133428e-02 
4.14062500000000e+00 6.95835377321677e-02 1.74486919814456e-02 
4.15798611111111e+00 6.90720900233514e-02 1.73734692513014e-02 
4.17534722222222e+00 6.85620789677390e-02 1.72985131054854e-02 
4.19270833333333e+00 6.80535014313488e-02 1.72237737388633e-02 
4.21006944444445e+00 6.75464069690528e-02 1.71491905069172e-02 
4.22743055555556e+00 6.70414430053335e-02 1.70747272258610e-02 
4.24479166666667e+00 6.65386032981490e-02 1.70004862902777e-02 
4.26215277777778e+00 6.60378808345069e-02 1.69264890949437e-02 
4.27951388888889e+00 6.55392690259812e-02 1.68527327544498e-02 
4.29687500000000e+00 6.50427613403241e-02 1.67792046116554e-02 
4.31423611111111e+00 6.45483591490267e-02 1.67058618851068e-02 
4.33159722222222e+00 6.40560736161492e-02 1.66326955892208e-02 
4.34895833333333e+00 6.35658992103617e-02 1.65598092506931e-02 
4.36631944444445e+00 6.30778255838294e-02 1.64873226522621e-02 
4.38368055555556e+00 6.25918400318975e-02 1.64152723831885e-02 
4.40104166666667e+00 6.21079300106189e-02 1.63435766467562e-02 
4.41840277777778e+00 6.16260588625290e-02 1.62720320637793e-02 
4.43576388888889e+00 6.11462038589511e-02 1.62005160162082e-02 
4.45312500000000e+00 6.06683644136701e-02 1.61290762227884e-02 
4.47048611111111e+00 6.01925377740836e-02 1.60577508752938e-02 
4.48784722222222e+00 5.97187215977441e-02 1.59865337138413e-02 
4.50520833333333e+00 5.92469135032945e-02 1.59154448246929e-02 
4.52256944444445e+00 5.87770340715157e-02 1.58445442924990e-02 
4.53993055555556e+00 5.83090595393001e-02 1.57739338271674e-02 
4.55729166666667e+00 5.78429809513389e-02 1.57037433214722e-02 
4.57465277777778e+00 5.73787855912892e-02 1.56340376619655e-02 
4.59201388888889e+00 5.69164604627712e-02 1.55648170101979e-02 
4.60937500000000e+00 5.64559928897670e-02 1.54960439980706e-02 
4.62673611111111e+00 5.59973740849414e-02 1.54276366855557e-02 
4.64409722222222e+00 5.55405975604048e-02 1.53594120373603e-02 
4.66145833333333e+00 5.50856640301967e-02 1.52911241713102e-02 
4.67881944444445e+00 5.46325803503556e-02 1.52226658583042e-02 
4.69618055555556e+00 5.41813531371955e-02 1.51540212305229e-02 
4.71354166666667e+00 5.37319812516818e-02 1.50850835971535e-02 
4.73090277777778e+00 5.32844549088370e-02 1.50156979398176e-02 
4.74826388888889e+00 5.28387918391421e-02 1.49457837340256e-02 
4.76562500000000e+00 5.23950101996298e-02 1.48753292234372e-02 
4.78298611111111e+00 5.19531282678149e-02 1.48043419831635e-02 
4.80034722222222e+00 5.15131637679988e-02 1.47328311798018e-02 
4.81770833333333e+00 5.10751536874826e-02 1.46608008711916e-02 
4.83506944444445e+00 5.06391328138182e-02 1.45882824370933e-02 
4.85243055555556e+00 5.02051162165141e-02 1.45153282789321e-02 
4.86979166666667e+00 4.97731179430958e-02 1.44419781697625e-02 
4.88715277777778e+00 4.93431511931357e-02 1.43682528855522e-02 
4.90451388888889e+00 4.89152287938716e-02 1.42941469553077e-02 
4.92187500000000e+00 4.84893922535698e-02 1.42196477425546e-02 
4.93923611111111e+00 4.80656635318905e-02 1.41447864764874e-02 
4.95659722222222e+00 4.76440540326851e-02 1.40696058145350e-02 
4.97395833333333e+00 4.72245743267435e-02 1.39941225886684e-02 
4.99131944444445e+00 4.68072348103230e-02 1.39183468199640e-02 
5.00868055555556e+00 4.63920454589536e-02 1.38423782037800e-02 
5.02604166666667e+00 4.59785469093169e-02 1.37664091525790e-02 
5.04340277777778e+00 4.55667450489259e-02 1.36904130232004e-02 
5.06076388888889e+00 4.51566484273296e-02 1.36143277374667e-02 
5.07812500000000e+00 4.47482667139234e-02 1.35381400752611e-02 
5.09548611111111e+00 4.43416092954739e-02 1.34618578388165e-02 
5.11284722222222e+00 4.39367623920577e-02 1.33854803107881e-02 
5.13020833333333e+00 4.35339765961885e-02 1.33090205404500e-02 
5.14756944444445e+00 4.31332558112887e-02 1.32325606398210e-02 
5.16493055555556e+00 4.27346018011684e-02 1.31561502491101e-02 
5.18229166666667e+00 4.23380154363842e-02 1.30798071632103e-02 
5.19965277777778e+00 4.19434973780256e-02 1.30035476769563e-02 
5.21701388888889e+00 4.15509961055617e-02 1.29274238250407e-02 
5.23437500000000e+00 4.11604546445237e-02 1.28514919425109e-02 
5.25173611111111e+00 4.07718706598222e-02 1.27757660153136e-02 
5.26909722222222e+00 4.03852419603165e-02 1.27002423312719e-02 
5.28645833333333e+00 4.00005664097539e-02 1.26249204614362e-02 
5.30381944444445e+00 3.96178418193504e-02 1.25497948123727e-02 
5.32118055555556e+00 3.92369162366022e-02 1.24748727373080e-02 
5.33854166666667e+00 3.88577316076492e-02 1.24001442868013e-02 
5.35590277777778e+00 3.84802886036421e-02 1.23255960482510e-02 
5.37326388888889e+00 3.81045883324491e-02 1.22512197165581e-02 
5.39062500000000e+00 3.77306319284953e-02 1.21770173017839e-02 
