Energy(eV)           EEDF(eV^-(3/2))      Anisotropy(eV^-(3/2))
1.04166666666667e-02 4.34704794567467e-01 5.52644438097310e-03 
3.12500000000000e-02 4.34379119035140e-01 7.41415525463034e-03 
5.20833333333333e-02 4.33181737491535e-01 1.95871154026609e-02 
7.29166666666667e-02 4.31262183012514e-01 3.05742310436567e-02 
9.37500000000000e-02 4.29024686360124e-01 3.78863194853425e-02 
1.14583333333333e-01 4.26709937781689e-01 4.22782095341980e-02 
1.35416666666667e-01 4.24416437362296e-01 4.52438856186005e-02 
1.56250000000000e-01 4.22084657747373e-01 4.76869054043713e-02 
1.77083333333333e-01 4.19833385205200e-01 4.91990098526408e-02 
1.97916666666667e-01 4.17676990388879e-01 5.00031536674720e-02 
2.18750000000000e-01 4.15590464558869e-01 5.06265346521900e-02 
2.39583333333333e-01 4.13545868298103e-01 5.10900487201590e-02 
2.60416666666667e-01 4.11550403444118e-01 5.21434047653399e-02 
2.81250000000000e-01 4.09579085835822e-01 5.37833293040203e-02 
3.02083333333333e-01 4.07649652108036e-01 5.45170890664152e-02 
3.22916666666667e-01 4.05776692827577e-01 5.37856981964234e-02 
3.43750000000000e-01 4.03953382969115e-01 5.20888681438238e-02 
3.64583333333333e-01 4.02260795974770e-01 5.05510256940675e-02 
3.85416666666667e-01 4.00613658578405e-01 5.00778878143670e-02 
4.06250000000000e-01 3.98978031490226e-01 4.98992331400016e-02 
4.27083333333333e-01 3.97364076457322e-01 4.93139203226950e-02 
4.47916666666667e-01 3.95783292441464e-01 4.81234007118774e-02 
4.68750000000000e-01 3.94195647508314e-01 4.65251478325015e-02 
4.89583333333333e-01 3.92735115463631e-01 4.61569282670193e-02 
5.10416666666667e-01 3.91247878833679e-01 4.72871848580058e-02 
5.31250000000000e-01 3.89727635176151e-01 4.80196861616303e-02 
5.52083333333333e-01 3.88206870913306e-01 4.79449448535039e-02 
5.72916666666667e-01 3.86661233174881e-01 4.71146067217689e-02 
5.93750000000000e-01 3.85150497624045e-01 4.62624056401895e-02 
6.14583333333333e-01 3.83715488151563e-01 4.64981997398599e-02 
6.35416666666667e-01 3.82276923077277e-01 4.73563772470577e-02 
6.56250000000000e-01 3.80837495140139e-01 4.81113997239576e-02 
6.77083333333333e-01 3.79402417945176e-01 4.80738347606794e-02 
6.97916666666667e-01 3.77884497154075e-01 4.72926685448638e-02 
7.18750000000000e-01 3.76523985566324e-01 4.74611018635821e-02 
7.39583333333333e-01 3.75144431291519e-01 4.88840958308806e-02 
7.60416666666667e-01 3.73723733680647e-01 5.03688789415251e-02 
7.81250000000000e-01 3.72266544646773e-01 5.17265167990060e-02 
8.02083333333333e-01 3.70752781331865e-01 5.27299967309341e-02 
8.22916666666667e-01 3.69168106005731e-01 5.36447287847332e-02 
8.43750000000000e-01 3.67565833843138e-01 5.52166323185605e-02 
8.64583333333333e-01 3.65865470252076e-01 5.72756978225963e-02 
8.85416666666667e-01 3.64059006564169e-01 5.94194978125542e-02 
9.06250000000000e-01 3.62143296500180e-01 6.12776784300551e-02 
9.27083333333333e-01 3.60084424375714e-01 6.28788363528233e-02 
9.47916666666667e-01 3.58037822569712e-01 6.50464158613321e-02 
9.68750000000000e-01 3.55897087082787e-01 6.77128424459533e-02 
9.89583333333333e-01 3.53656534810666e-01 7.04625773555270e-02 
1.01041666666667e+00 3.51314210271572e-01 7.32322918393243e-02 
1.03125000000000e+00 3.48839873562644e-01 7.59112091253437e-02 
1.05208333333333e+00 3.46219039870420e-01 7.85394783535792e-02 
1.07291666666667e+00 3.43505807647738e-01 8.13799627596966e-02 
1.09375000000000e+00 3.40654176403911e-01 8.43348586286914e-02 
1.11458333333333e+00 3.37661960217584e-01 8.72815043273900e-02 
1.13541666666667e+00 3.34528320964491e-01 9.01386791196580e-02 
1.15625000000000e+00 3.31221447144828e-01 9.28865288033202e-02 
1.17708333333333e+00 3.27808234166191e-01 9.57500618886555e-02 
1.19791666666667e+00 3.24243125532315e-01 9.86626545977021e-02 
1.21875000000000e+00 3.20519055534456e-01 1.01504508743881e-01 
1.23958333333333e+00 3.16627628357092e-01 1.04216349862075e-01 
1.26041666666667e+00 3.12556201233000e-01 1.06753228132621e-01 
1.28125000000000e+00 3.08331843234512e-01 1.09134651450334e-01 
1.30208333333333e+00 3.03942482065180e-01 1.11301498256341e-01 
1.32291666666667e+00 2.99387448609266e-01 1.13181778272715e-01 
1.34375000000000e+00 2.94670792774729e-01 1.14716356872637e-01 
1.36458333333333e+00 2.89792784534758e-01 1.15874641706257e-01 
1.38541666666667e+00 2.84781061505489e-01 1.16672901984118e-01 
1.40625000000000e+00 2.79635228601734e-01 1.17094694365405e-01 
1.42708333333333e+00 2.74369063817261e-01 1.17124948572599e-01 
1.44791666666667e+00 2.68994924497147e-01 1.16771534294249e-01 
1.46875000000000e+00 2.63527219336646e-01 1.16068066147844e-01 
1.48958333333333e+00 2.57986073570792e-01 1.15070730770736e-01 
1.51041666666667e+00 2.52384373381368e-01 1.13831603650972e-01 
1.53125000000000e+00 2.46776058322502e-01 1.12397622427002e-01 
1.55208333333333e+00 2.41175423297791e-01 1.10825155328789e-01 
1.57291666666667e+00 2.35596475219003e-01 1.09160185815646e-01 
1.59375000000000e+00 2.30054486092331e-01 1.07443198300459e-01 
1.61458333333333e+00 2.24565783541707e-01 1.05694771872129e-01 
1.63541666666667e+00 2.19157136525580e-01 1.03915269774793e-01 
1.65625000000000e+00 2.13836419522632e-01 1.02107491087702e-01 
1.67708333333333e+00 2.08606626483019e-01 1.00261893942517e-01 
1.69791666666667e+00 2.03470876279697e-01 9.83630762888116e-02 
1.71875000000000e+00 1.98443938796993e-01 9.63927488405802e-02 
1.73958333333333e+00 1.93543307632292e-01 9.43284855377316e-02 
1.76041666666667e+00 1.88771980181847e-01 9.21621550085272e-02 
1.78125000000000e+00 1.84130031130080e-01 8.98926262515141e-02 
1.80208333333333e+00 1.79619461023636e-01 8.75277119985977e-02 
1.82291666666667e+00 1.75243019267220e-01 8.50966444240994e-02 
1.84375000000000e+00 1.71003130812562e-01 8.26393165992528e-02 
1.86458333333333e+00 1.66902426781483e-01 8.02011242914732e-02 
1.88541666666667e+00 1.62940997201866e-01 7.78281224882579e-02 
1.90625000000000e+00 1.59118487299474e-01 7.55536504437628e-02 
1.92708333333333e+00 1.55452296153058e-01 7.33910056005316e-02 
1.94791666666667e+00 1.51946480085242e-01 7.13424694814900e-02 
1.96875000000000e+00 1.48593746624194e-01 6.93898600134521e-02 
1.98958333333333e+00 1.45390008886783e-01 6.75119253085300e-02 
2.01041666666667e+00 1.42332078886997e-01 6.56873881237906e-02 
2.03125000000000e+00 1.39411381288778e-01 6.39008042642034e-02 
2.05208333333333e+00 1.36627185566950e-01 6.21441076410023e-02 
2.07291666666667e+00 1.33967245922475e-01 6.04171725964273e-02 
2.09375000000000e+00 1.31427455564597e-01 5.87263469127222e-02 
2.11458333333333e+00 1.28995803513839e-01 5.70786705495933e-02 
2.13541666666667e+00 1.26647526554651e-01 5.54800055426434e-02 
2.15625000000000e+00 1.24381610774153e-01 5.39265175995868e-02 
2.17708333333333e+00 1.22192587057749e-01 5.24172041044357e-02 
2.19791666666667e+00 1.20082647342637e-01 5.09528354760450e-02 
2.21875000000000e+00 1.18047582429384e-01 4.95379833687712e-02 
2.23958333333333e+00 1.16084373809835e-01 4.81740005495004e-02 
2.26041666666667e+00 1.14193242723306e-01 4.68648070962004e-02 
2.28125000000000e+00 1.12371119728447e-01 4.56176141994344e-02 
2.30208333333333e+00 1.10616373656032e-01 4.44356410892003e-02 
2.32291666666667e+00 1.08921842168640e-01 4.33154724311139e-02 
2.34375000000000e+00 1.07283050104971e-01 4.22488028527826e-02 
2.36458333333333e+00 1.05693445048991e-01 4.12325969864029e-02 
2.38541666666667e+00 1.04150232334253e-01 4.02617701284269e-02 
2.40625000000000e+00 1.02649751814223e-01 3.93322460909881e-02 
2.42708333333333e+00 1.01192773826184e-01 3.84400150886862e-02 
2.44791666666667e+00 9.97786704110888e-02 3.75842218541679e-02 
2.46875000000000e+00 9.84078407832862e-02 3.67683082343782e-02 
2.48958333333333e+00 9.70805662837794e-02 3.59984943304104e-02 
2.51041666666667e+00 9.57952999524181e-02 3.52751947294343e-02 
2.53125000000000e+00 9.45440737232823e-02 3.45941212081170e-02 
2.55208333333333e+00 9.33236825314846e-02 3.39499524521634e-02 
2.57291666666667e+00 9.21322388942822e-02 3.33395613530452e-02 
2.59375000000000e+00 9.09657776319364e-02 3.27569753294462e-02 
2.61458333333333e+00 8.98229799169298e-02 3.21931689171345e-02 
2.63541666666667e+00 8.87014957653656e-02 3.16416821905237e-02 
2.65625000000000e+00 8.76020004422586e-02 3.10999634564899e-02 
2.67708333333333e+00 8.65244088999513e-02 3.05697527220792e-02 
2.69791666666667e+00 8.54692512577528e-02 3.00558591736035e-02 
2.71875000000000e+00 8.44375348705936e-02 2.95627165396704e-02 
2.73958333333333e+00 8.34274116372399e-02 2.90939058375877e-02 
2.76041666666667e+00 8.24395348729125e-02 2.86509424676599e-02 
2.78125000000000e+00 8.14706655998483e-02 2.82323095411836e-02 
2.80208333333333e+00 8.05201777316512e-02 2.78328238686304e-02 
2.82291666666667e+00 7.95835733550015e-02 2.74471882643826e-02 
2.84375000000000e+00 7.86593510457354e-02 2.70700682482145e-02 
2.86458333333333e+00 7.77475436243595e-02 2.66987186428447e-02 
2.88541666666667e+00 7.68474457777579e-02 2.63329720082833e-02 
2.90625000000000e+00 7.59600583840369e-02 2.59745918021078e-02 
2.92708333333333e+00 7.50849576503700e-02 2.56262780869304e-02 
2.94791666666667e+00 7.42226343414544e-02 2.52904127918778e-02 
2.96875000000000e+00 7.33722938054219e-02 2.49685720807096e-02 
2.98958333333333e+00 7.25334667058866e-02 2.46603465960169e-02 
3.01041666666667e+00 7.17046271892827e-02 2.43637700306383e-02 
3.03125000000000e+00 7.08849563762160e-02 2.40760604371803e-02 
3.05208333333333e+00 7.00740661698608e-02 2.37946021070539e-02 
3.07291666666667e+00 6.92712487907255e-02 2.35171638436944e-02 
3.09375000000000e+00 6.84766876516794e-02 2.32414611991940e-02 
3.11458333333333e+00 6.76903428756329e-02 2.29652869206500e-02 
3.13541666666667e+00 6.69127316723701e-02 2.26902187059513e-02 
3.15625000000000e+00 6.61437939996816e-02 2.24203033334059e-02 
3.17708333333333e+00 6.53834416213594e-02 2.21568592139389e-02 
3.19791666666667e+00 6.46313527899497e-02 2.18995300599889e-02 
3.21875000000000e+00 6.38871365262255e-02 2.16480006744009e-02 
3.23958333333333e+00 6.31509658589081e-02 2.14001433493794e-02 
3.26041666666667e+00 6.24224111504264e-02 2.11521173243807e-02 
3.28125000000000e+00 6.17015936329229e-02 2.09016184478771e-02 
3.30208333333333e+00 6.09884764334540e-02 2.06483085263953e-02 
3.32291666666667e+00 6.02828778162602e-02 2.03921902306331e-02 
3.34375000000000e+00 5.95847928571085e-02 2.01330156900263e-02 
3.36458333333333e+00 5.88943408307566e-02 1.98704222684901e-02 
3.38541666666667e+00 5.82117694091368e-02 1.96042106275624e-02 
3.40625000000000e+00 5.75370945621519e-02 1.93348254427058e-02 
3.42708333333333e+00 5.68703951790767e-02 1.90636052343343e-02 
3.44791666666667e+00 5.62115868526999e-02 1.87912294163440e-02 
3.46875000000000e+00 5.55606747411685e-02 1.85174323370848e-02 
3.48958333333333e+00 5.49177552185861e-02 1.82420560629511e-02 
3.51041666666667e+00 5.42828814241433e-02 1.79651923502412e-02 
3.53125000000000e+00 5.36562165674817e-02 1.76869906780986e-02 
3.55208333333333e+00 5.30378674247999e-02 1.74073899426024e-02 
3.57291666666667e+00 5.24278874234445e-02 1.71280801457400e-02 
3.59375000000000e+00 5.18267628768780e-02 1.68535690337757e-02 
3.61458333333333e+00 5.12347426266506e-02 1.65880501576716e-02 
3.63541666666667e+00 5.06515871816324e-02 1.63315077351075e-02 
3.65625000000000e+00 5.00771981534546e-02 1.60807874339158e-02 
3.67708333333333e+00 4.95117480090653e-02 1.58340052894240e-02 
3.69791666666667e+00 4.89550717764538e-02 1.55911455614305e-02 
3.71875000000000e+00 4.84070345020022e-02 1.53526317620302e-02 
3.73958333333333e+00 4.78673636343143e-02 1.51184963256066e-02 
3.76041666666667e+00 4.73358944838442e-02 1.48876333343490e-02 
3.78125000000000e+00 4.68125535414576e-02 1.46591531997156e-02 
3.80208333333333e+00 4.62972279339800e-02 1.44330518341226e-02 
3.82291666666667e+00 4.57897848366245e-02 1.42096508205895e-02 
3.84375000000000e+00 4.52901274740879e-02 1.39891070923698e-02 
3.86458333333333e+00 4.47981353132764e-02 1.37713400770364e-02 
3.88541666666667e+00 4.43137273884134e-02 1.35562142843981e-02 
3.90625000000000e+00 4.38366618993003e-02 1.33441615567268e-02 
3.92708333333333e+00 4.33669837168053e-02 1.31361664960643e-02 
3.94791666666667e+00 4.29045714101755e-02 1.29330116830142e-02 
3.96875000000000e+00 4.24492450219403e-02 1.27348673451758e-02 
3.98958333333333e+00 4.20011764214428e-02 1.25415528003168e-02 
4.01041666666667e+00 4.15602626015821e-02 1.23531120800072e-02 
4.03125000000000e+00 4.11261550680758e-02 1.21698224935499e-02 
4.05208333333333e+00 4.06986451176020e-02 1.19917301647800e-02 
4.07291666666667e+00 4.02777513516096e-02 1.18186563925795e-02 
4.09375000000000e+00 3.98634328500111e-02 1.16505421011059e-02 
4.11458333333333e+00 3.94554347287958e-02 1.14873279827701e-02 
4.13541666666667e+00 3.90533468836628e-02 1.13287412292765e-02 
4.15625000000000e+00 3.86570181765551e-02 1.11743551675625e-02 
4.17708333333333e+00 3.82662982369763e-02 1.10239405381279e-02 
4.19791666666667e+00 3.78810356781045e-02 1.08775280750375e-02 
4.21875000000000e+00 3.75011787172003e-02 1.07352592528363e-02 
4.23958333333333e+00 3.71267201368749e-02 1.05972167613263e-02 
4.26041666666667e+00 3.67574621763812e-02 1.04635103189844e-02 
4.28125000000000e+00 3.63932337037827e-02 1.03342573339945e-02 
4.30208333333333e+00 3.60338636291420e-02 1.02094577146642e-02 
4.32291666666667e+00 3.56791904580831e-02 1.00890069510005e-02 
4.34375000000000e+00 3.53290569104814e-02 9.97272866360708e-03 
4.36458333333333e+00 3.49833131189824e-02 9.86034746068971e-03 
4.38541666666667e+00 3.46418165846337e-02 9.75167368316976e-03 
4.40625000000000e+00 3.43044279520891e-02 9.64655235951472e-03 
4.42708333333333e+00 3.39709901878617e-02 9.54478121674703e-03 
4.44791666666667e+00 3.36415321912612e-02 9.44618491435129e-03 
4.46875000000000e+00 3.33159707780285e-02 9.35069254364121e-03 
4.48958333333333e+00 3.29941870644350e-02 9.25823882372415e-03 
4.51041666666667e+00 3.26760653057387e-02 9.16835836289619e-03 
4.53125000000000e+00 3.23614126202430e-02 9.08028722779412e-03 
4.55208333333333e+00 3.20507194126455e-02 8.99365062606815e-03 
4.57291666666667e+00 3.17439119256233e-02 8.90864020106731e-03 
4.59375000000000e+00 3.14409134378168e-02 8.82526738957893e-03 
4.61458333333333e+00 3.11416437227570e-02 8.74337377024971e-03 
4.63541666666667e+00 3.08460207451243e-02 8.66272123763021e-03 
4.65625000000000e+00 3.05540079822661e-02 8.58314111257160e-03 
4.67708333333333e+00 3.02655528789468e-02 8.50457667498291e-03 
4.69791666666667e+00 2.99806045153101e-02 8.42699228586508e-03 
4.71875000000000e+00 2.96991096805604e-02 8.35034438983792e-03 
4.73958333333333e+00 2.94210153423681e-02 8.27498966050457e-03 
4.76041666666667e+00 2.91462493729314e-02 8.20175753772706e-03 
4.78125000000000e+00 2.88747102247512e-02 8.13114466582376e-03 
4.80208333333333e+00 2.86062936759670e-02 8.06317197772857e-03 
4.82291666666667e+00 2.83409047269230e-02 7.99784108186824e-03 
4.84375000000000e+00 2.80784643852345e-02 7.93520381088848e-03 
4.86458333333333e+00 2.78188976611619e-02 7.87525714765470e-03 
4.88541666666667e+00 2.75621030327893e-02 7.81794714450606e-03 
4.90625000000000e+00 2.73079820147044e-02 7.76290583451447e-03 
4.92708333333333e+00 2.70563532377792e-02 7.70942007621081e-03 
4.94791666666667e+00 2.68071452593533e-02 7.65701542317918e-03 
4.96875000000000e+00 2.65603239082726e-02 7.60559763448609e-03 
4.98958333333333e+00 2.63158476852412e-02 7.55514620439237e-03 
5.01041666666667e+00 2.60736756741774e-02 7.50565794312439e-03 
5.03125000000000e+00 2.58335932005394e-02 7.45722788512816e-03 
5.05208333333333e+00 2.55955525530285e-02 7.41017468900004e-03 
5.07291666666667e+00 2.53594603233993e-02 7.36483125715544e-03 
5.09375000000000e+00 2.51252027842705e-02 7.32106418914105e-03 
5.11458333333333e+00 2.48927257065802e-02 7.27839621550347e-03 
5.13541666666667e+00 2.46619773770331e-02 7.23635391453351e-03 
5.15625000000000e+00 2.44329395845719e-02 7.19473740579383e-03 
5.17708333333333e+00 2.42056461581061e-02 7.15354201524860e-03 
5.19791666666667e+00 2.39801016886860e-02 7.11274432359583e-03 
5.21875000000000e+00 2.37562712338986e-02 7.07229189628047e-03 
5.23958333333333e+00 2.35341137902178e-02 7.03213819153845e-03 
5.26041666666667e+00 2.33136155316254e-02 6.99226422375930e-03 
5.28125000000000e+00 2.30947642170775e-02 6.95266505802047e-03 
5.30208333333333e+00 2.28775516607255e-02 6.91333482250869e-03 
5.32291666666667e+00 2.26619324691291e-02 6.87427009723989e-03 
5.34375000000000e+00 2.24478726749274e-02 6.83546429082916e-03 
5.36458333333333e+00 2.22353601806275e-02 6.79691105228014e-03 
5.38541666666667e+00 2.20243830845516e-02 6.75860715073609e-03 
5.40625000000000e+00 2.18149301823004e-02 6.72053688114702e-03 
5.42708333333333e+00 2.16069914070969e-02 6.68267715552175e-03 
5.44791666666667e+00 2.14005560253850e-02 6.64505856508530e-03 
5.46875000000000e+00 2.11956114602105e-02 6.60775231637447e-03 
5.48958333333333e+00 2.09921430688754e-02 6.57078802088906e-03 
5.51041666666667e+00 2.07901365494338e-02 6.53411770306942e-03 
5.53125000000000e+00 2.05896560106908e-02 6.49763920123144e-03 
5.55208333333333e+00 2.03906934179740e-02 6.46130994697717e-03 
5.57291666666667e+00 2.01932394651033e-02 6.42513826397866e-03 
5.59375000000000e+00 1.99972844797929e-02 6.38913206880455e-03 
5.61458333333333e+00 1.98028137377579e-02 6.35329984976531e-03 
5.63541666666667e+00 1.96097974272118e-02 6.31767252474946e-03 
5.65625000000000e+00 1.94182245370146e-02 6.28228321573607e-03 
5.67708333333333e+00 1.92280832259272e-02 6.24714274153415e-03 
5.69791666666667e+00 1.90393617875908e-02 6.21224812308688e-03 
5.71875000000000e+00 1.88520583228743e-02 6.17757101327171e-03 
5.73958333333333e+00 1.86661772769117e-02 6.14305893959239e-03 
5.76041666666667e+00 1.84817099777565e-02 6.10869930008087e-03 
5.78125000000000e+00 1.82986471873765e-02 6.07451351593321e-03 
5.80208333333333e+00 1.81169791028356e-02 6.04049793316050e-03 
5.82291666666667e+00 1.79366830053576e-02 6.00664750567382e-03 
5.84375000000000e+00 1.77577406997802e-02 5.97300301240241e-03 
5.86458333333333e+00 1.75801411877797e-02 5.93960878098970e-03 
5.88541666666667e+00 1.74038725753504e-02 5.90647218032673e-03 
5.90625000000000e+00 1.72289044795960e-02 5.87360174351167e-03 
5.92708333333333e+00 1.70550962853922e-02 5.84103137934362e-03 
5.94791666666667e+00 1.68824048777553e-02 5.80876537419858e-03 
5.96875000000000e+00 1.67108194644392e-02 5.77679973613180e-03 
5.98958333333333e+00 1.65403294041117e-02 5.74513064677923e-03 
6.01041666666667e+00 1.63709241980927e-02 5.71365319786836e-03 
6.03125000000000e+00 1.62023357457267e-02 5.68219533535254e-03 
6.05208333333333e+00 1.60345024219837e-02 5.65064042823060e-03 
6.07291666666667e+00 1.58674263090136e-02 5.61897716320890e-03 
6.09375000000000e+00 1.57011124344600e-02 5.58721091041371e-03 
6.11458333333333e+00 1.55355865061403e-02 5.55536957089590e-03 
6.13541666666667e+00 1.53709353325262e-02 5.52348286177930e-03 
6.15625000000000e+00 1.52071609074416e-02 5.49156803817086e-03 
6.17708333333333e+00 1.50442655229043e-02 5.45962428000179e-03 
6.19791666666667e+00 1.48822506985555e-02 5.42764548464785e-03 
6.21875000000000e+00 1.47211188174238e-02 5.39560272928831e-03 
6.23958333333333e+00 1.45608736975472e-02 5.36347479395530e-03 
6.26041666666667e+00 1.44015186845924e-02 5.33127248869273e-03 
6.28125000000000e+00 1.42430564543094e-02 5.29901061543275e-03 
6.30208333333333e+00 1.40854893863075e-02 5.26670034373091e-03 
6.32291666666667e+00 1.39288193131673e-02 5.23434222700529e-03 
6.34375000000000e+00 1.37730485753648e-02 5.20191452318455e-03 
6.36458333333333e+00 1.36181804679195e-02 5.16940361618861e-03 
6.38541666666667e+00 1.34642182556565e-02 5.13681402060556e-03 
6.40625000000000e+00 1.33111649831400e-02 5.10410758433719e-03 
6.42708333333333e+00 1.31590279692049e-02 5.07120544753838e-03 
6.44791666666667e+00 1.30078154051535e-02 5.03807837816546e-03 
6.46875000000000e+00 1.28575346052064e-02 5.00473919925161e-03 
