Energy(eV)           EEDF(eV^-(3/2))      Anisotropy(eV^-(3/2))
7.23379629629630e-03 7.43194226159550e-01 7.99719159496386e-02 
2.17013888888889e-02 7.34988474635354e-01 5.41845776267202e-02 
3.61689814814815e-02 7.24253362035459e-01 8.50024277473993e-02 
5.06365740740741e-02 7.12410774284449e-01 1.06409572471114e-01 
6.51041666666667e-02 7.00203918593436e-01 1.22101704270509e-01 
7.95717592592593e-02 6.88094052084698e-01 1.33754741683130e-01 
9.40393518518519e-02 6.76237739220101e-01 1.41132667333873e-01 
1.08506944444444e-01 6.65081373845224e-01 1.45037063453486e-01 
1.22974537037037e-01 6.54553879257413e-01 1.46874497483145e-01 
1.37442129629630e-01 6.44490136856358e-01 1.48217413435740e-01 
1.51909722222222e-01 6.34747036813122e-01 1.49611719044797e-01 
1.66377314814815e-01 6.25521170325058e-01 1.49949751127274e-01 
1.80844907407407e-01 6.16959921344700e-01 1.49173339212581e-01 
1.95312500000000e-01 6.08889583732623e-01 1.48365264496949e-01 
2.09780092592593e-01 6.01253969777068e-01 1.47629158447090e-01 
2.24247685185185e-01 5.93901533365342e-01 1.46724402205013e-01 
2.38715277777778e-01 5.86837487864623e-01 1.45780451450723e-01 
2.53182870370370e-01 5.80053254980857e-01 1.46285323409772e-01 
2.67650462962963e-01 5.73466023119787e-01 1.48713106450448e-01 
2.82118055555556e-01 5.67059323865196e-01 1.50244770981074e-01 
2.96585648148148e-01 5.60976869243938e-01 1.49162419622105e-01 
3.11053240740741e-01 5.55232576518455e-01 1.46454209131244e-01 
3.25520833333333e-01 5.49742904380483e-01 1.42791756651468e-01 
3.39988425925926e-01 5.44446745685287e-01 1.38170476868468e-01 
3.54456018518519e-01 5.39544702464270e-01 1.33302681337486e-01 
3.68923611111111e-01 5.34897671560364e-01 1.29674492654730e-01 
3.83391203703704e-01 5.30412159234300e-01 1.28049080611309e-01 
3.97858796296296e-01 5.26011020043924e-01 1.26804665253446e-01 
4.12326388888889e-01 5.21735359182314e-01 1.24290037311352e-01 
4.26793981481482e-01 5.17610895184874e-01 1.21633410547266e-01 
4.41261574074074e-01 5.13607106011249e-01 1.18285505174825e-01 
4.55729166666667e-01 5.09544920922514e-01 1.13601252554921e-01 
4.70196759259259e-01 5.05846499371328e-01 1.09251476946901e-01 
4.84664351851852e-01 5.02395086735242e-01 1.06305918546439e-01 
4.99131944444445e-01 4.99062454551919e-01 1.05035490607281e-01 
5.13599537037037e-01 4.95762423926893e-01 1.05101868386227e-01 
5.28067129629630e-01 4.92478560525359e-01 1.04670566943709e-01 
5.42534722222222e-01 4.89248916840393e-01 1.03696568128619e-01 
5.57002314814815e-01 4.86068160464866e-01 1.01854814891774e-01 
5.71469907407407e-01 4.82835578825246e-01 9.84063343690293e-02 
5.85937500000000e-01 4.79708195210074e-01 9.49294780381755e-02 
6.00405092592593e-01 4.76887288530691e-01 9.32846916841335e-02 
6.14872685185185e-01 4.74108972477164e-01 9.33901414162707e-02 
6.29340277777778e-01 4.71360773698729e-01 9.35033491800032e-02 
6.43807870370370e-01 4.68667721590892e-01 9.30522347114040e-02 
6.58275462962963e-01 4.66037326242284e-01 9.26233552681810e-02 
6.72743055555556e-01 4.63459902047661e-01 9.22113199715972e-02 
6.87210648148148e-01 4.60943324024026e-01 9.05132953114873e-02 
7.01678240740741e-01 4.58278924740058e-01 8.79405860576969e-02 
7.16145833333333e-01 4.55958566143566e-01 8.66592478998491e-02 
7.30613425925926e-01 4.53660093988563e-01 8.71342045042532e-02 
7.45081018518519e-01 4.51355293215014e-01 8.74383817366048e-02 
7.59548611111111e-01 4.49063623855069e-01 8.74669855661780e-02 
7.74016203703704e-01 4.46780210440918e-01 8.76524353788679e-02 
7.88483796296296e-01 4.44501737015084e-01 8.72666230176173e-02 
8.02951388888889e-01 4.42119880273147e-01 8.58681413686267e-02 
8.17418981481482e-01 4.39785510240395e-01 8.46433687385969e-02 
8.31886574074074e-01 4.37549837378208e-01 8.46542777375418e-02 
8.46354166666667e-01 4.35260274788006e-01 8.54382638266722e-02 
8.60821759259259e-01 4.32909527033264e-01 8.63007233496238e-02 
8.75289351851852e-01 4.30499188854974e-01 8.70878644511437e-02 
8.89756944444445e-01 4.28030396157517e-01 8.78366471052650e-02 
9.04224537037037e-01 4.25502870219831e-01 8.80340351764577e-02 
9.18692129629630e-01 4.22814118940983e-01 8.76400907749092e-02 
9.33159722222222e-01 4.20260967038822e-01 8.77787025596108e-02 
9.47627314814815e-01 4.17717106565457e-01 8.87760644253474e-02 
9.62094907407408e-01 4.15134471558014e-01 9.00490408840914e-02 
9.76562500000000e-01 4.12509782459343e-01 9.13598641684833e-02 
9.91030092592593e-01 4.09843903386261e-01 9.26577797052960e-02 
1.00549768518519e+00 4.07136476605665e-01 9.39697305749740e-02 
1.01996527777778e+00 4.04370643230560e-01 9.50626806161523e-02 
1.03443287037037e+00 4.01483552976002e-01 9.57867055973343e-02 
1.04890046296296e+00 3.98592409107227e-01 9.66616219258030e-02 
1.06336805555556e+00 3.95693088561548e-01 9.79607212641342e-02 
1.07783564814815e+00 3.92731549287943e-01 9.93836835030995e-02 
1.09230324074074e+00 3.89708181375204e-01 1.00776405528047e-01 
1.10677083333333e+00 3.86623023894231e-01 1.02147948909632e-01 
1.12123842592593e+00 3.83477203309550e-01 1.03508832944265e-01 
1.13570601851852e+00 3.80270067408480e-01 1.04726964329409e-01 
1.15017361111111e+00 3.76958095841339e-01 1.05772159916264e-01 
1.16464120370370e+00 3.73637143201980e-01 1.06954126488851e-01 
1.17910879629630e+00 3.70261814721710e-01 1.08287061159041e-01 
1.19357638888889e+00 3.66822377632655e-01 1.09613470760141e-01 
1.20804398148148e+00 3.63318141332499e-01 1.10909760529960e-01 
1.22251157407407e+00 3.59748853381443e-01 1.12173955149461e-01 
1.23697916666667e+00 3.56114007357348e-01 1.13344318382239e-01 
1.25144675925926e+00 3.52393343799325e-01 1.14401869524317e-01 
1.26591435185185e+00 3.48633600227599e-01 1.15455442698429e-01 
1.28038194444444e+00 3.44811745916211e-01 1.16485902726218e-01 
1.29484953703704e+00 3.40927957401811e-01 1.17420416665713e-01 
1.30931712962963e+00 3.36983621414375e-01 1.18243493662065e-01 
1.32378472222222e+00 3.32980264443763e-01 1.18943637220314e-01 
1.33825231481481e+00 3.28920662219562e-01 1.19499125867420e-01 
1.35271990740741e+00 3.24802198083320e-01 1.19888877900475e-01 
1.36718750000000e+00 3.20636244164769e-01 1.20135239706020e-01 
1.38165509259259e+00 3.16431885090709e-01 1.20259195625245e-01 
1.39612268518519e+00 3.12185460828470e-01 1.20239806573563e-01 
1.41059027777778e+00 3.07901722134166e-01 1.20062892890761e-01 
1.42505787037037e+00 3.03585282984093e-01 1.19731126429358e-01 
1.43952546296296e+00 2.99240358202643e-01 1.19241655209268e-01 
1.45399305555556e+00 2.94869462281060e-01 1.18599031966209e-01 
1.46846064814815e+00 2.90482705700996e-01 1.17827872725338e-01 
1.48292824074074e+00 2.86085163870956e-01 1.16949787241987e-01 
1.49739583333333e+00 2.81680038252358e-01 1.15971247457271e-01 
1.51186342592593e+00 2.77276130629217e-01 1.14901864174381e-01 
1.52633101851852e+00 2.72888091701514e-01 1.13755668902738e-01 
1.54079861111111e+00 2.68520000910643e-01 1.12543195510779e-01 
1.55526620370370e+00 2.64176008413508e-01 1.11279307451847e-01 
1.56973379629630e+00 2.59861708830635e-01 1.09984320003694e-01 
1.58420138888889e+00 2.55581360695419e-01 1.08668597189945e-01 
1.59866898148148e+00 2.51337058723854e-01 1.07337091628413e-01 
1.61313657407407e+00 2.47136579421833e-01 1.05992806740139e-01 
1.62760416666667e+00 2.42986122081974e-01 1.04637646291199e-01 
1.64207175925926e+00 2.38889670046431e-01 1.03271350635290e-01 
1.65653935185185e+00 2.34847040422984e-01 1.01893583332522e-01 
1.67100694444444e+00 2.30859678377301e-01 1.00505062138926e-01 
1.68547453703704e+00 2.26929438369960e-01 9.91006551793349e-02 
1.69994212962963e+00 2.23054034187223e-01 9.76750597546072e-02 
1.71440972222222e+00 2.19241693404949e-01 9.62223667087563e-02 
1.72887731481482e+00 2.15498037981202e-01 9.47356519379355e-02 
1.74334490740741e+00 2.11823561199803e-01 9.32116309086408e-02 
1.75781250000000e+00 2.08218041391025e-01 9.16522939935497e-02 
1.77228009259259e+00 2.04681513416273e-01 9.00573428333499e-02 
1.78674768518519e+00 2.01214821741572e-01 8.84265451548019e-02 
1.80121527777778e+00 1.97818120436975e-01 8.67674482246295e-02 
1.81568287037037e+00 1.94491670372196e-01 8.50892117644645e-02 
1.83015046296296e+00 1.91236913671119e-01 8.34016259882782e-02 
1.84461805555556e+00 1.88053166374403e-01 8.17180893412692e-02 
1.85908564814815e+00 1.84940924425147e-01 8.00537106424152e-02 
1.87355324074074e+00 1.81899895151037e-01 7.84208304833400e-02 
1.88802083333333e+00 1.78929211417133e-01 7.68294327404074e-02 
1.90248842592593e+00 1.76028571112060e-01 7.52880516878199e-02 
1.91695601851852e+00 1.73202900025658e-01 7.37954090959387e-02 
1.93142361111111e+00 1.70454092130118e-01 7.23514563404417e-02 
1.94589120370370e+00 1.67781475734049e-01 7.09549424762604e-02 
1.96035879629630e+00 1.65182002772064e-01 6.95998289756079e-02 
1.97482638888889e+00 1.62656005694177e-01 6.82780072030924e-02 
1.98929398148148e+00 1.60200332920620e-01 6.69840164697013e-02 
2.00376157407407e+00 1.57814952969595e-01 6.57138913799686e-02 
2.01822916666667e+00 1.55497952215272e-01 6.44624455540046e-02 
2.03269675925926e+00 1.53246164764020e-01 6.32290555846747e-02 
2.04716435185185e+00 1.51060231508087e-01 6.20149201399225e-02 
2.06163194444444e+00 1.48935076179697e-01 6.08212992266893e-02 
2.07609953703704e+00 1.46870942600440e-01 5.96498385627777e-02 
2.09056712962963e+00 1.44863363083414e-01 5.85032605482395e-02 
2.10503472222222e+00 1.42910986918721e-01 5.73814263099708e-02 
2.11950231481481e+00 1.41003973621931e-01 5.62866792246469e-02 
2.13396990740741e+00 1.39138374979174e-01 5.52183681993051e-02 
2.14843750000000e+00 1.37314536246251e-01 5.41752932981167e-02 
2.16290509259259e+00 1.35529932267684e-01 5.31536373834383e-02 
2.17737268518519e+00 1.33784389625110e-01 5.21526908369460e-02 
2.19184027777778e+00 1.32078713929236e-01 5.11738879005507e-02 
2.20630787037037e+00 1.30411058606556e-01 5.02156028151210e-02 
2.22077546296296e+00 1.28778289286912e-01 4.92781948604869e-02 
2.23524305555556e+00 1.27180480434076e-01 4.83652482387482e-02 
2.24971064814815e+00 1.25617606655120e-01 4.74795779716397e-02 
2.26417824074074e+00 1.24088572129728e-01 4.66229681727345e-02 
2.27864583333333e+00 1.22592333929273e-01 4.58006943298921e-02 
2.29311342592593e+00 1.21128464862936e-01 4.50143261616900e-02 
2.30758101851852e+00 1.19693514999359e-01 4.42617425275591e-02 
2.32204861111111e+00 1.18287144407330e-01 4.35428628854152e-02 
2.33651620370370e+00 1.16907215647222e-01 4.28567005417873e-02 
2.35098379629630e+00 1.15551062890788e-01 4.21990208621870e-02 
2.36545138888889e+00 1.14217487008239e-01 4.15695786301328e-02 
2.37991898148148e+00 1.12905422900674e-01 4.09681349354955e-02 
2.39438657407407e+00 1.11613356529073e-01 4.03901414764895e-02 
2.40885416666667e+00 1.10340444856581e-01 3.98329876147210e-02 
2.42332175925926e+00 1.09087982844759e-01 3.92967386314500e-02 
2.43778935185185e+00 1.07855218326524e-01 3.87803666827820e-02 
2.45225694444444e+00 1.06641784793978e-01 3.82834208991218e-02 
2.46672453703704e+00 1.05448102672898e-01 3.78090939484138e-02 
2.48119212962963e+00 1.04274007221087e-01 3.73589470341064e-02 
2.49565972222222e+00 1.03118073728814e-01 3.69327362788429e-02 
2.51012731481482e+00 1.01979830086533e-01 3.65294403896782e-02 
2.52459490740741e+00 1.00856130476882e-01 3.61445952755595e-02 
2.53906250000000e+00 9.97460027858485e-02 3.57738241455398e-02 
2.55353009259259e+00 9.86487428157333e-02 3.54172098439757e-02 
2.56799768518519e+00 9.75636696270932e-02 3.50741004747763e-02 
2.58246527777778e+00 9.64897757461268e-02 3.47408764092267e-02 
2.59693287037037e+00 9.54258747872191e-02 3.44143101428054e-02 
2.61140046296296e+00 9.43724140548870e-02 3.40927825312613e-02 
2.62586805555556e+00 9.33282742990609e-02 3.37731088214917e-02 
2.64033564814815e+00 9.22935527029762e-02 3.34529759295534e-02 
2.65480324074074e+00 9.12688486044671e-02 3.31333872168831e-02 
2.66927083333333e+00 9.02541109447514e-02 3.28145191017639e-02 
2.68373842592593e+00 8.92494344452916e-02 3.24966965816075e-02 
2.69820601851852e+00 8.82552508022660e-02 3.21826751929160e-02 
2.71267361111111e+00 8.72720198451047e-02 3.18750770725795e-02 
2.72714120370370e+00 8.62991606243614e-02 3.15745978892423e-02 
2.74160879629630e+00 8.53366224486620e-02 3.12825731585104e-02 
2.75607638888889e+00 8.43844505013080e-02 3.10001197456444e-02 
2.77054398148148e+00 8.34416040698594e-02 3.07251992505098e-02 
2.78501157407407e+00 8.25076881554775e-02 3.04561032854697e-02 
2.79947916666667e+00 8.15826473705999e-02 3.01920697704041e-02 
2.81394675925926e+00 8.06638042367559e-02 2.99310917123819e-02 
2.82841435185185e+00 7.97504604654463e-02 2.96709149784212e-02 
2.84288194444444e+00 7.88426824063718e-02 2.94107805849939e-02 
2.85734953703704e+00 7.79406658443031e-02 2.91493077374512e-02 
2.87181712962963e+00 7.70439113085846e-02 2.88850684954857e-02 
2.88628472222222e+00 7.61529453635801e-02 2.86189045137224e-02 
2.90075231481482e+00 7.52681708073769e-02 2.83521061977846e-02 
2.91521990740741e+00 7.43893798188782e-02 2.80850173428149e-02 
2.92968750000000e+00 7.35170381403861e-02 2.78190269088002e-02 
2.94415509259259e+00 7.26511989376449e-02 2.75556546471089e-02 
2.95862268518519e+00 7.17917365738624e-02 2.72950295782487e-02 
2.97309027777778e+00 7.09384440527262e-02 2.70371719963270e-02 
2.98755787037037e+00 7.00914210046790e-02 2.67821666672168e-02 
3.00202546296296e+00 6.92497687325015e-02 2.65295567126484e-02 
3.01649305555556e+00 6.84132340792268e-02 2.62788332224990e-02 
3.03096064814815e+00 6.75820208565506e-02 2.60302062649169e-02 
3.04542824074074e+00 6.67559423655976e-02 2.57828723504493e-02 
3.05989583333333e+00 6.59347862911176e-02 2.55352543441376e-02 
3.07436342592593e+00 6.51185061810892e-02 2.52869485838357e-02 
3.08883101851852e+00 6.43072998969871e-02 2.50375769932502e-02 
3.10329861111111e+00 6.35012429736794e-02 2.47853790403309e-02 
3.11776620370370e+00 6.27005553780818e-02 2.45285359384366e-02 
3.13223379629630e+00 6.19056739030336e-02 2.42676444975006e-02 
3.14670138888889e+00 6.11167486129216e-02 2.40051112394013e-02 
3.16116898148148e+00 6.03337676631864e-02 2.37423860486902e-02 
3.17563657407407e+00 5.95569113406045e-02 2.34799682249441e-02 
3.19010416666667e+00 5.87861804936789e-02 2.32179011967542e-02 
3.20457175925926e+00 5.80212388164381e-02 2.29564130823059e-02 
3.21903935185185e+00 5.72626258773936e-02 2.26963378827059e-02 
3.23350694444444e+00 5.65104037533020e-02 2.24375894213158e-02 
3.24797453703704e+00 5.57645100972409e-02 2.21779032165676e-02 
3.26244212962963e+00 5.50249898165872e-02 2.19151172905584e-02 
3.27690972222222e+00 5.42920206313941e-02 2.16487133086627e-02 
3.29137731481482e+00 5.35657062502892e-02 2.13787615381110e-02 
3.30584490740741e+00 5.28462301363086e-02 2.11054674815356e-02 
3.32031250000000e+00 5.21334032151704e-02 2.08291247302651e-02 
3.33478009259259e+00 5.14274130333167e-02 2.05490766161862e-02 
3.34924768518519e+00 5.07284220550756e-02 2.02646105853634e-02 
3.36371527777778e+00 5.00366661252330e-02 1.99757831962285e-02 
3.37818287037037e+00 4.93523973529610e-02 1.96829351098987e-02 
3.39265046296296e+00 4.86757834736886e-02 1.93860917083535e-02 
3.40711805555556e+00 4.80070113067550e-02 1.90860588855639e-02 
3.42158564814815e+00 4.73461923963642e-02 1.87847017783301e-02 
3.43605324074074e+00 4.66933814429647e-02 1.84829105594864e-02 
3.45052083333333e+00 4.60486342687944e-02 1.81806061472611e-02 
3.46498842592593e+00 4.54120381722945e-02 1.78778200207040e-02 
3.47945601851852e+00 4.47837007730261e-02 1.75746311451304e-02 
3.49392361111111e+00 4.41636858537308e-02 1.72711033486847e-02 
3.50839120370370e+00 4.35520877957069e-02 1.69673691865657e-02 
3.52285879629630e+00 4.29490174195001e-02 1.66636344486756e-02 
3.53732638888889e+00 4.23545697505064e-02 1.63598210051450e-02 
3.55179398148148e+00 4.17688263866644e-02 1.60554990162110e-02 
3.56626157407407e+00 4.11917779751219e-02 1.57517530886871e-02 
3.58072916666667e+00 4.06238811473118e-02 1.54515821908426e-02 
3.59519675925926e+00 4.00653095594105e-02 1.51579933867053e-02 
3.60966435185185e+00 3.95161299395601e-02 1.48733036331844e-02 
3.62413194444445e+00 3.89763530303256e-02 1.45978941702707e-02 
3.63859953703704e+00 3.84451340333708e-02 1.43296871856122e-02 
3.65306712962963e+00 3.79231634618587e-02 1.40662855103716e-02 
3.66753472222222e+00 3.74102966787120e-02 1.38073409183322e-02 
3.68200231481482e+00 3.69063855501889e-02 1.35527362675130e-02 
3.69646990740741e+00 3.64112847203150e-02 1.33024196613376e-02 
3.71093750000000e+00 3.59248642351363e-02 1.30566486359521e-02 
3.72540509259259e+00 3.54469308636071e-02 1.28157804350007e-02 
3.73987268518519e+00 3.49772648381568e-02 1.25795435586406e-02 
3.75434027777778e+00 3.45157252063494e-02 1.23470315363768e-02 
3.76880787037037e+00 3.40622161749791e-02 1.21175445587814e-02 
3.78327546296296e+00 3.36166534800654e-02 1.18909076981081e-02 
3.79774305555556e+00 3.31789377355185e-02 1.16671682304171e-02 
3.81221064814815e+00 3.27489446135884e-02 1.14465323106311e-02 
3.82667824074074e+00 3.23266223321595e-02 1.12292105127158e-02 
3.84114583333333e+00 3.19118554335073e-02 1.10152371542728e-02 
3.85561342592593e+00 3.15045343694826e-02 1.08045115226976e-02 
3.87008101851852e+00 3.11045599640944e-02 1.05969471942101e-02 
3.88454861111111e+00 3.07118414720611e-02 1.03924681984232e-02 
3.89901620370370e+00 3.03261563058472e-02 1.01912083252938e-02 
3.91348379629630e+00 2.99474644130023e-02 9.99360853529299e-03 
3.92795138888889e+00 2.95757132861321e-02 9.80010322960205e-03 
3.94241898148148e+00 2.92107623632826e-02 9.61072976958153e-03 
3.95688657407407e+00 2.88524731954115e-02 9.42551393980959e-03 
3.97135416666667e+00 2.85007320210307e-02 9.24460500928837e-03 
3.98582175925926e+00 2.81556868227391e-02 9.06790133854171e-03 
4.00028935185185e+00 2.78171773374964e-02 8.89540217370170e-03 
4.01475694444444e+00 2.74850577002324e-02 8.72720438319242e-03 
4.02922453703704e+00 2.71591740955095e-02 8.56340841463809e-03 
4.04369212962963e+00 2.68393570670823e-02 8.40397798896960e-03 
4.05815972222222e+00 2.65254538771175e-02 8.24882177210336e-03 
4.07262731481481e+00 2.62175503668960e-02 8.09776662267160e-03 
4.08709490740741e+00 2.59154841093344e-02 7.95080852840076e-03 
4.10156250000000e+00 2.56190907866292e-02 7.80790564951658e-03 
4.11603009259259e+00 2.53281179264273e-02 7.66887784844127e-03 
4.13049768518519e+00 2.50423644523088e-02 7.53344352710586e-03 
4.14496527777778e+00 2.47617068647259e-02 7.40134216565010e-03 
4.15943287037037e+00 2.44860216218566e-02 7.27239111139524e-03 
4.17390046296296e+00 2.42151906217047e-02 7.14653596313122e-03 
4.18836805555556e+00 2.39490936827036e-02 7.02379771785281e-03 
4.20283564814815e+00 2.36876095900915e-02 6.90421160222817e-03 
4.21730324074074e+00 2.34307074043532e-02 6.78782821085568e-03 
4.23177083333333e+00 2.31782977457028e-02 6.67468940541987e-03 
4.24623842592593e+00 2.29302405657017e-02 6.56474880601147e-03 
4.26070601851852e+00 2.26864009730802e-02 6.45799098968460e-03 
4.27517361111111e+00 2.24466532514567e-02 6.35446765626590e-03 
4.28964120370370e+00 2.22108698579151e-02 6.25416919990327e-03 
4.30410879629630e+00 2.19789263701218e-02 6.15701904894644e-03 
4.31857638888889e+00 2.17507027346519e-02 6.06294241311862e-03 
4.33304398148148e+00 2.15260809998755e-02 5.97187797245803e-03 
4.34751157407407e+00 2.13049478570524e-02 5.88370970672584e-03 
4.36197916666667e+00 2.10871937076840e-02 5.79825615914323e-03 
4.37644675925926e+00 2.08727162678319e-02 5.71539246643995e-03 
4.39091435185185e+00 2.06614159157065e-02 5.63505801152729e-03 
4.40538194444444e+00 2.04531949905795e-02 5.55715696533373e-03 
4.41984953703704e+00 2.02479509847333e-02 5.48156488744779e-03 
4.43431712962963e+00 2.00456453557428e-02 5.40818721469454e-03 
4.44878472222222e+00 1.98462563606147e-02 5.33696872941901e-03 
4.46325231481482e+00 1.96496978903146e-02 5.26787012233303e-03 
4.47771990740741e+00 1.94558861227030e-02 5.20084628363095e-03 
4.49218750000000e+00 1.92647388824878e-02 5.13585383394981e-03 
