Energy(eV)           EEDF(eV^-(3/2))      Anisotropy(eV^-(3/2))
1.25000000000000e-02 1.56940646046459e-01 -9.04378224916179e-04 
3.75000000000000e-02 1.56955169264975e-01 -2.77295146234073e-04 
6.25000000000000e-02 1.56966882376270e-01 2.07206353876179e-04 
8.75000000000000e-02 1.56975239950922e-01 5.61466037194128e-04 
1.12500000000000e-01 1.56979736727899e-01 8.85545717314174e-04 
1.37500000000000e-01 1.56980064281780e-01 1.35430723397124e-03 
1.62500000000000e-01 1.56972088455759e-01 1.92791796232902e-03 
1.87500000000000e-01 1.56955432165415e-01 2.41819965517064e-03 
2.12500000000000e-01 1.56930362570871e-01 2.84792748786190e-03 
2.37500000000000e-01 1.56896992595410e-01 3.18166262854217e-03 
2.62500000000000e-01 1.56857280455863e-01 4.23139192804665e-03 
2.87500000000000e-01 1.56785389396473e-01 5.97153458503415e-03 
3.12500000000000e-01 1.56680702538647e-01 6.95574555346612e-03 
3.37500000000000e-01 1.56561690369695e-01 7.28687196335745e-03 
3.62500000000000e-01 1.56436210676704e-01 7.58497406636964e-03 
3.87500000000000e-01 1.56301551548225e-01 8.53242100412248e-03 
4.12500000000000e-01 1.56130107463764e-01 1.04657982242865e-02 
4.37500000000000e-01 1.55909597632865e-01 1.15106268824254e-02 
4.62500000000000e-01 1.55639705921615e-01 1.11357453617355e-02 
4.87500000000000e-01 1.55425763044423e-01 1.09011840974870e-02 
5.12500000000000e-01 1.55200675484361e-01 1.15776091171955e-02 
5.37500000000000e-01 1.54950514435398e-01 1.26904313377559e-02 
5.62500000000000e-01 1.54672550735016e-01 1.29389826238273e-02 
5.87500000000000e-01 1.54348684459052e-01 1.23571972733310e-02 
6.12500000000000e-01 1.54093933537633e-01 1.26050214911825e-02 
6.37500000000000e-01 1.53819830645254e-01 1.39197356348769e-02 
6.62500000000000e-01 1.53525167280899e-01 1.48708836036800e-02 
6.87500000000000e-01 1.53229469493598e-01 1.49475258579110e-02 
7.12500000000000e-01 1.52904357347202e-01 1.46459309835140e-02 
7.37500000000000e-01 1.52632257244910e-01 1.47551237448894e-02 
7.62500000000000e-01 1.52350864274291e-01 1.53467236175277e-02 
7.87500000000000e-01 1.52058505240750e-01 1.53762866329163e-02 
8.12500000000000e-01 1.51708137700187e-01 1.48656795006164e-02 
8.37500000000000e-01 1.51416223284054e-01 1.48487599241087e-02 
8.62500000000000e-01 1.51088890914643e-01 1.54392804263678e-02 
8.87500000000000e-01 1.50723665888863e-01 1.59782913091225e-02 
9.12500000000000e-01 1.50321909281654e-01 1.63361712448905e-02 
9.37500000000000e-01 1.49894402986109e-01 1.65768456792569e-02 
9.62500000000000e-01 1.49467330006561e-01 1.69450513894377e-02 
9.87500000000000e-01 1.49020803761919e-01 1.74267264713554e-02 
1.01250000000000e+00 1.48554844478849e-01 1.77574494506100e-02 
1.03750000000000e+00 1.48062130014222e-01 1.79370045654998e-02 
1.06250000000000e+00 1.47574812107027e-01 1.82279095844639e-02 
1.08750000000000e+00 1.47070593863038e-01 1.86190567260699e-02 
1.11250000000000e+00 1.46549653667447e-01 1.89793297511298e-02 
1.13750000000000e+00 1.46013065219730e-01 1.92612728344638e-02 
1.16250000000000e+00 1.45454783232530e-01 1.94909615698687e-02 
1.18750000000000e+00 1.44892432859658e-01 1.97767355070121e-02 
1.21250000000000e+00 1.44314026840346e-01 2.00936766296159e-02 
1.23750000000000e+00 1.43725971687467e-01 2.03710477242177e-02 
1.26250000000000e+00 1.43125478391971e-01 2.06193461093366e-02 
1.28750000000000e+00 1.42521314010773e-01 2.08871451008194e-02 
1.31250000000000e+00 1.41907975569454e-01 2.11664117450963e-02 
1.33750000000000e+00 1.41288759431800e-01 2.14199615625812e-02 
1.36250000000000e+00 1.40661250478399e-01 2.16517950869700e-02 
1.38750000000000e+00 1.40032832035445e-01 2.19000128534962e-02 
1.41250000000000e+00 1.39398961461421e-01 2.21606790374207e-02 
1.43750000000000e+00 1.38759919820667e-01 2.24064259654403e-02 
1.46250000000000e+00 1.38114817106805e-01 2.26360893739223e-02 
1.48750000000000e+00 1.37467173187330e-01 2.28654059232870e-02 
1.51250000000000e+00 1.36815229692751e-01 2.30942300740757e-02 
1.53750000000000e+00 1.36159231732991e-01 2.33132792406571e-02 
1.56250000000000e+00 1.35498853102195e-01 2.35227025568252e-02 
1.58750000000000e+00 1.34835782323372e-01 2.37290701488437e-02 
1.61250000000000e+00 1.34169332831467e-01 2.39323804256592e-02 
1.63750000000000e+00 1.33499730187415e-01 2.41285551848882e-02 
1.66250000000000e+00 1.32826948065787e-01 2.43176784387823e-02 
1.68750000000000e+00 1.32151766767737e-01 2.45024216399103e-02 
1.71250000000000e+00 1.31474024357774e-01 2.46827190689849e-02 
1.73750000000000e+00 1.30794555783194e-01 2.48574620200099e-02 
1.76250000000000e+00 1.30113563142465e-01 2.50267179945523e-02 
1.78750000000000e+00 1.29431240374839e-01 2.51906636092891e-02 
1.81250000000000e+00 1.28747775163774e-01 2.53493151126885e-02 
1.83750000000000e+00 1.28063360110620e-01 2.55024949539518e-02 
1.86250000000000e+00 1.27378187332620e-01 2.56500954933154e-02 
1.88750000000000e+00 1.26692447193187e-01 2.57922077303180e-02 
1.91250000000000e+00 1.26006323596651e-01 2.59290509861524e-02 
1.93750000000000e+00 1.25319328247369e-01 2.60607399278447e-02 
1.96250000000000e+00 1.24631624565780e-01 2.61873164085619e-02 
1.98750000000000e+00 1.23943347134119e-01 2.63085961551088e-02 
2.01250000000000e+00 1.23254644917051e-01 2.64245046184485e-02 
2.03750000000000e+00 1.22565688993618e-01 2.65351323592325e-02 
2.06250000000000e+00 1.21876640702296e-01 2.66405261972397e-02 
2.08750000000000e+00 1.21187659694127e-01 2.67407524818655e-02 
2.11250000000000e+00 1.20498900550836e-01 2.68358644942094e-02 
2.13750000000000e+00 1.19809622059497e-01 2.69256740166146e-02 
2.16250000000000e+00 1.19119976216218e-01 2.70101800659675e-02 
2.18750000000000e+00 1.18430111259019e-01 2.70894753347424e-02 
2.21250000000000e+00 1.17740172146781e-01 2.71635025051968e-02 
2.23750000000000e+00 1.17049758303442e-01 2.72319580563216e-02 
2.26250000000000e+00 1.16359025595296e-01 2.72947330705573e-02 
2.28750000000000e+00 1.15668125340225e-01 2.73519289843910e-02 
2.31250000000000e+00 1.14977204599906e-01 2.74036726699309e-02 
2.33750000000000e+00 1.14286652357592e-01 2.74500816778314e-02 
2.36250000000000e+00 1.13596609294948e-01 2.74912146530935e-02 
2.38750000000000e+00 1.12907214088766e-01 2.75271574446265e-02 
2.41250000000000e+00 1.12218601151400e-01 2.75579876509322e-02 
2.43750000000000e+00 1.11533161999321e-01 2.75838886473131e-02 
2.46250000000000e+00 1.10851026658851e-01 2.76049586819355e-02 
2.48750000000000e+00 1.10172321422096e-01 2.76212854354520e-02 
2.51250000000000e+00 1.09497167839439e-01 2.76330537707869e-02 
2.53750000000000e+00 1.08822817833613e-01 2.76403020783861e-02 
2.56250000000000e+00 1.08149384507230e-01 2.76430205306664e-02 
2.58750000000000e+00 1.07476979196830e-01 2.76413015203448e-02 
2.61250000000000e+00 1.06805709390885e-01 2.76352689233494e-02 
2.63750000000000e+00 1.06136448745280e-01 2.76250617179730e-02 
2.66250000000000e+00 1.05469296206745e-01 2.76108015461201e-02 
2.68750000000000e+00 1.04804348221847e-01 2.75925719321181e-02 
2.71250000000000e+00 1.04141698049481e-01 2.75705035265981e-02 
2.73750000000000e+00 1.03481439218056e-01 2.75447753107094e-02 
2.76250000000000e+00 1.02823654774899e-01 2.75155454691993e-02 
2.78750000000000e+00 1.02168424130022e-01 2.74829038152675e-02 
2.81250000000000e+00 1.01515824614912e-01 2.74469212218171e-02 
2.83750000000000e+00 1.00864898653731e-01 2.74076601896390e-02 
2.86250000000000e+00 1.00215727005760e-01 2.73650842009735e-02 
2.88750000000000e+00 9.95683868039504e-02 2.73192267235894e-02 
2.91250000000000e+00 9.89229531104583e-02 2.72702131828107e-02 
2.93750000000000e+00 9.82795985593367e-02 2.72181966422657e-02 
2.96250000000000e+00 9.76383897764203e-02 2.71632535857313e-02 
2.98750000000000e+00 9.69993928981080e-02 2.71054233771608e-02 
3.01250000000000e+00 9.63626720872727e-02 2.70448284522288e-02 
3.03750000000000e+00 9.57280530683659e-02 2.69816910320553e-02 
3.06250000000000e+00 9.50955854459824e-02 2.69162047406670e-02 
3.08750000000000e+00 9.44653199905635e-02 2.68484668269846e-02 
3.11250000000000e+00 9.38373064698211e-02 2.67785411887610e-02 
3.13750000000000e+00 9.32115137015599e-02 2.67065162784890e-02 
3.16250000000000e+00 9.25879875676713e-02 2.66324484505598e-02 
3.18750000000000e+00 9.19667727532028e-02 2.65564006687392e-02 
3.21250000000000e+00 9.13479118926464e-02 2.64784917404542e-02 
3.23750000000000e+00 9.07327741762468e-02 2.63987116652120e-02 
3.26250000000000e+00 9.01213955467017e-02 2.63171007008204e-02 
3.28750000000000e+00 8.95138081643520e-02 2.62336498258107e-02 
3.31250000000000e+00 8.89100426832905e-02 2.61484080334796e-02 
3.33750000000000e+00 8.83079398933988e-02 2.60616094184323e-02 
3.36250000000000e+00 8.77075402797769e-02 2.59731900657690e-02 
3.38750000000000e+00 8.71088831583981e-02 2.58831977824435e-02 
3.41250000000000e+00 8.65120069050767e-02 2.57916857748824e-02 
3.43750000000000e+00 8.59172168033509e-02 2.56987559120042e-02 
3.46250000000000e+00 8.53245405786917e-02 2.56045807423549e-02 
3.48750000000000e+00 8.47340062227036e-02 2.55092374978650e-02 
3.51250000000000e+00 8.41456410265358e-02 2.54127704798159e-02 
3.53750000000000e+00 8.35593980437605e-02 2.53152313728779e-02 
3.56250000000000e+00 8.29753029850938e-02 2.52166356113564e-02 
3.58750000000000e+00 8.23933813673534e-02 2.51170142226664e-02 
3.61250000000000e+00 8.18136574684032e-02 2.50164346985116e-02 
3.63750000000000e+00 8.12360057944162e-02 2.49149948919884e-02 
3.66250000000000e+00 8.06604508638472e-02 2.48127572152332e-02 
3.68750000000000e+00 8.00870127509245e-02 2.47097645208437e-02 
3.71250000000000e+00 7.95157110014610e-02 2.46060418474398e-02 
3.73750000000000e+00 7.89461930165826e-02 2.45016506779414e-02 
3.76250000000000e+00 7.83784801765120e-02 2.43965620334444e-02 
3.78750000000000e+00 7.78125944596839e-02 2.42907796213390e-02 
3.81250000000000e+00 7.72485571795985e-02 2.41844035191720e-02 
3.83750000000000e+00 7.66861417186192e-02 2.40777368297132e-02 
3.86250000000000e+00 7.61253555336950e-02 2.39710867941335e-02 
3.88750000000000e+00 7.55662026862337e-02 2.38645915191229e-02 
3.91250000000000e+00 7.50086869921915e-02 2.37582703845582e-02 
3.93750000000000e+00 7.44531338701911e-02 2.36521843550659e-02 
3.96250000000000e+00 7.38995399405158e-02 2.35464927980452e-02 
3.98750000000000e+00 7.33478992882351e-02 2.34412455209778e-02 
4.01250000000000e+00 7.27982061237167e-02 2.33362760906081e-02 
4.03750000000000e+00 7.22508575262160e-02 2.32313318144529e-02 
4.06250000000000e+00 7.17058571433021e-02 2.31265136872234e-02 
4.08750000000000e+00 7.11632002874321e-02 2.30219392613171e-02 
4.11250000000000e+00 7.06228822594424e-02 2.29176294915793e-02 
4.13750000000000e+00 7.00839636032547e-02 2.28136622507853e-02 
4.16250000000000e+00 6.95464484832307e-02 2.27098298679393e-02 
4.18750000000000e+00 6.90103452797280e-02 2.26059830417304e-02 
4.21250000000000e+00 6.84756378029902e-02 2.25020521011837e-02 
4.23750000000000e+00 6.79432062637465e-02 2.23979715535347e-02 
4.26250000000000e+00 6.74130519996902e-02 2.22938838320929e-02 
4.28750000000000e+00 6.68851763058850e-02 2.21898180303878e-02 
4.31250000000000e+00 6.63595804484673e-02 2.20857532862711e-02 
4.33750000000000e+00 6.58363400125813e-02 2.19817334216367e-02 
4.36250000000000e+00 6.53154531343700e-02 2.18779291058955e-02 
4.38750000000000e+00 6.47969135770535e-02 2.17744315928505e-02 
4.41250000000000e+00 6.42807150930638e-02 2.16711061506244e-02 
4.43750000000000e+00 6.37666701193482e-02 2.15677717229813e-02 
4.46250000000000e+00 6.32547829996711e-02 2.14644145363930e-02 
4.48750000000000e+00 6.27450555216181e-02 2.13611067361175e-02 
4.51250000000000e+00 6.22374893185201e-02 2.12578806241302e-02 
4.53750000000000e+00 6.17320421792795e-02 2.11548808444309e-02 
4.56250000000000e+00 6.12287096269767e-02 2.10522895875770e-02 
4.58750000000000e+00 6.07274833009582e-02 2.09501815664086e-02 
4.61250000000000e+00 6.02283548402075e-02 2.08485186736758e-02 
4.63750000000000e+00 5.97313219652928e-02 2.07470869732255e-02 
4.66250000000000e+00 5.92363886784232e-02 2.06455767344909e-02 
4.68750000000000e+00 5.87435632838301e-02 2.05438597362350e-02 
4.71250000000000e+00 5.82528538274019e-02 2.04418624797745e-02 
4.73750000000000e+00 5.77641537655059e-02 2.03394148749594e-02 
4.76250000000000e+00 5.72774813878226e-02 2.02363849069565e-02 
4.78750000000000e+00 5.67928556069600e-02 2.01327709038246e-02 
4.81250000000000e+00 5.63102946301834e-02 2.00285849061001e-02 
4.83750000000000e+00 5.58299431300598e-02 1.99238363487350e-02 
4.86250000000000e+00 5.53518162893564e-02 1.98186074543509e-02 
4.88750000000000e+00 5.48759279274471e-02 1.97129505700064e-02 
4.91250000000000e+00 5.44022914192929e-02 1.96068644700203e-02 
4.93750000000000e+00 5.39310473754013e-02 1.95003449944481e-02 
4.96250000000000e+00 5.34622073620699e-02 1.93934663719143e-02 
4.98750000000000e+00 5.29957810237726e-02 1.92862801781288e-02 
5.01250000000000e+00 5.25317774326717e-02 1.91788936318759e-02 
5.03750000000000e+00 5.20695738992793e-02 1.90715473244117e-02 
5.06250000000000e+00 5.16091782358766e-02 1.89642000258719e-02 
5.08750000000000e+00 5.11506004038352e-02 1.88568130305310e-02 
5.11250000000000e+00 5.06938501154873e-02 1.87494060510243e-02 
5.13750000000000e+00 5.02393397376337e-02 1.86419780616297e-02 
5.16250000000000e+00 4.97870721617999e-02 1.85346540421044e-02 
5.18750000000000e+00 4.93370479523820e-02 1.84274871488927e-02 
5.21250000000000e+00 4.88892673744192e-02 1.83204581932733e-02 
5.23750000000000e+00 4.84435840473801e-02 1.82136120946818e-02 
5.26250000000000e+00 4.79999985803935e-02 1.81070551140959e-02 
5.28750000000000e+00 4.75585080624809e-02 1.80008579466741e-02 
5.31250000000000e+00 4.71191095716435e-02 1.78949990984961e-02 
5.33750000000000e+00 4.66815096693007e-02 1.77894926128458e-02 
5.36250000000000e+00 4.62457097936664e-02 1.76843081626445e-02 
5.38750000000000e+00 4.58117111715573e-02 1.75794531141075e-02 
5.41250000000000e+00 4.53795147879482e-02 1.74748662313663e-02 
5.43750000000000e+00 4.49491289245770e-02 1.73704498286214e-02 
5.46250000000000e+00 4.45205602690541e-02 1.72662072171020e-02 
5.48750000000000e+00 4.40938127573462e-02 1.71621760187363e-02 
5.51250000000000e+00 4.36688901743942e-02 1.70583534715080e-02 
5.53750000000000e+00 4.32462168247454e-02 1.69546095023723e-02 
5.56250000000000e+00 4.28257953571830e-02 1.68508818416384e-02 
5.58750000000000e+00 4.24076303473215e-02 1.67471400409075e-02 
5.61250000000000e+00 4.19917259674051e-02 1.66433974552612e-02 
5.63750000000000e+00 4.15779504535493e-02 1.65397867413565e-02 
5.66250000000000e+00 4.11663041984741e-02 1.64365023011989e-02 
5.68750000000000e+00 4.07567821433054e-02 1.63336443358883e-02 
5.71250000000000e+00 4.03493792111856e-02 1.62312246557189e-02 
5.73750000000000e+00 3.99442227483597e-02 1.61290729631924e-02 
5.76250000000000e+00 3.95413138886272e-02 1.60268766546872e-02 
5.78750000000000e+00 3.91406618224082e-02 1.59244829271617e-02 
5.81250000000000e+00 3.87422752287794e-02 1.58218177703118e-02 
5.83750000000000e+00 3.83460430925404e-02 1.57188591179149e-02 
5.86250000000000e+00 3.79519792156753e-02 1.56157636393785e-02 
5.88750000000000e+00 3.75600894344318e-02 1.55126635462113e-02 
5.91250000000000e+00 3.71703792868829e-02 1.54096177036087e-02 
5.93750000000000e+00 3.67819660818941e-02 1.53069003623681e-02 
5.96250000000000e+00 3.63948591488286e-02 1.52044987435303e-02 
5.98750000000000e+00 3.60090677443069e-02 1.51024145289981e-02 
6.01250000000000e+00 3.56246007837874e-02 1.50004551214273e-02 
6.03750000000000e+00 3.52414887600260e-02 1.48982479511874e-02 
6.06250000000000e+00 3.48597585674750e-02 1.47956466317564e-02 
6.08750000000000e+00 3.44794368897488e-02 1.46926906537091e-02 
6.11250000000000e+00 3.41005497620258e-02 1.45895075240868e-02 
6.13750000000000e+00 3.37236668707903e-02 1.44861868928845e-02 
6.16250000000000e+00 3.33487982410631e-02 1.43828505962207e-02 
6.18750000000000e+00 3.29759538571352e-02 1.42795054477846e-02 
6.21250000000000e+00 3.26051432319284e-02 1.41760510420265e-02 
6.23750000000000e+00 3.22363892084676e-02 1.40723233078389e-02 
6.26250000000000e+00 3.18697096422450e-02 1.39683309556004e-02 
6.28750000000000e+00 3.15051193595479e-02 1.38641475737518e-02 
6.31250000000000e+00 3.11426325614287e-02 1.37598331277636e-02 
6.33750000000000e+00 3.07822600997484e-02 1.36553859787042e-02 
6.36250000000000e+00 3.04240164686770e-02 1.35506762243711e-02 
6.38750000000000e+00 3.00679203098631e-02 1.34456382411723e-02 
6.41250000000000e+00 2.97139895271328e-02 1.33400203308734e-02 
6.43750000000000e+00 2.93622724034675e-02 1.32333870116414e-02 
6.46250000000000e+00 2.90128101268977e-02 1.31256801712438e-02 
6.48750000000000e+00 2.86656380674289e-02 1.30170309332460e-02 
6.51250000000000e+00 2.83207903913286e-02 1.29075927613964e-02 
6.53750000000000e+00 2.79782893497976e-02 1.27975743815378e-02 
6.56250000000000e+00 2.76381582527025e-02 1.26870324493153e-02 
6.58750000000000e+00 2.73004216560136e-02 1.25759634477295e-02 
6.61250000000000e+00 2.69651032035390e-02 1.24643111657059e-02 
6.63750000000000e+00 2.66322745235817e-02 1.23519465828238e-02 
6.66250000000000e+00 2.63019652043119e-02 1.22388742998844e-02 
6.68750000000000e+00 2.59742025113598e-02 1.21251605792934e-02 
6.71250000000000e+00 2.56490126199029e-02 1.20109271245738e-02 
6.73750000000000e+00 2.53264120997421e-02 1.18963826336930e-02 
6.76250000000000e+00 2.50064160383156e-02 1.17816632705438e-02 
6.78750000000000e+00 2.46890379692090e-02 1.16668125809569e-02 
6.81250000000000e+00 2.43742906519547e-02 1.15519455418066e-02 
6.83750000000000e+00 2.40621763811017e-02 1.14371758149015e-02 
6.86250000000000e+00 2.37527030989580e-02 1.13224457131376e-02 
6.88750000000000e+00 2.34458812448565e-02 1.12076997613327e-02 
6.91250000000000e+00 2.31417205411862e-02 1.10929023608463e-02 
6.93750000000000e+00 2.28397814593262e-02 1.09780851748350e-02 
6.96250000000000e+00 2.25400859595309e-02 1.08631583379488e-02 
6.98750000000000e+00 2.22426560982387e-02 1.07481381287922e-02 
7.01250000000000e+00 2.19475129886427e-02 1.06331842716775e-02 
7.03750000000000e+00 2.16550992236322e-02 1.05184338186176e-02 
7.06250000000000e+00 2.13654132698203e-02 1.04040608488768e-02 
7.08750000000000e+00 2.10784539969653e-02 1.02900856640816e-02 
7.11250000000000e+00 2.07942197976464e-02 1.01765332074074e-02 
7.13750000000000e+00 2.05127078307150e-02 1.00635184958685e-02 
7.16250000000000e+00 2.02339099496040e-02 9.95122345161587e-03 
7.18750000000000e+00 1.99578131979731e-02 9.83973461268784e-03 
7.21250000000000e+00 1.96844043869260e-02 9.72911881368678e-03 
7.23750000000000e+00 1.94136632310428e-02 9.61943156897243e-03 
7.26250000000000e+00 1.91455743470898e-02 9.51059439169873e-03 
7.28750000000000e+00 1.88801250097563e-02 9.40254178373558e-03 
7.31250000000000e+00 1.86173022696947e-02 9.29520606994464e-03 
7.33750000000000e+00 1.83571016203559e-02 9.18845382958212e-03 
7.36250000000000e+00 1.80995173314823e-02 9.08223125650575e-03 
7.38750000000000e+00 1.78445431603787e-02 8.97655188494576e-03 
7.41250000000000e+00 1.75921724754751e-02 8.87157693224103e-03 
7.43750000000000e+00 1.73423806507555e-02 8.76762604572586e-03 
7.46250000000000e+00 1.70951425110149e-02 8.66487315427603e-03 
7.48750000000000e+00 1.68504324397205e-02 8.56332628011987e-03 
7.51250000000000e+00 1.66082249711392e-02 8.46297212773168e-03 
7.53750000000000e+00 1.63684952640735e-02 8.36378916639754e-03 
7.56250000000000e+00 1.61312187677471e-02 8.26575338470406e-03 
7.58750000000000e+00 1.58963713879533e-02 8.16884969982737e-03 
7.61250000000000e+00 1.56639291452709e-02 8.07307191017834e-03 
7.63750000000000e+00 1.54338679204317e-02 7.97840988883164e-03 
7.66250000000000e+00 1.52061636032878e-02 7.88484451260914e-03 
7.68750000000000e+00 1.49807929977754e-02 7.79236068601098e-03 
7.71250000000000e+00 1.47577330178482e-02 7.70095612716312e-03 
7.73750000000000e+00 1.45371498626196e-02 7.61058112745183e-03 
7.76250000000000e+00 1.43190164037088e-02 7.52126787034115e-03 
