Energy(eV)           EEDF(eV^-(3/2))      Anisotropy(eV^-(3/2))
1.50000000000000e-02 4.53826408320736e-01 8.07567794600914e-03 
4.50000000000000e-02 4.53611787973214e-01 6.30776117731170e-03 
7.50000000000000e-02 4.53243379476914e-01 1.13226534642597e-02 
1.05000000000000e-01 4.52758562656913e-01 1.48232646145233e-02 
1.35000000000000e-01 4.52215478543121e-01 1.70662412013552e-02 
1.65000000000000e-01 4.51608440393775e-01 1.86458066688475e-02 
1.95000000000000e-01 4.50978082691945e-01 1.97109191336158e-02 
2.25000000000000e-01 4.50324694716675e-01 2.05081948214399e-02 
2.55000000000000e-01 4.49640156951125e-01 2.16230374582606e-02 
2.85000000000000e-01 4.48909633688316e-01 2.28809973387581e-02 
3.15000000000000e-01 4.48149559204348e-01 2.32974757418920e-02 
3.45000000000000e-01 4.47381088227513e-01 2.29986572203009e-02 
3.75000000000000e-01 4.46620671133313e-01 2.31290391499902e-02 
4.05000000000000e-01 4.45824801934763e-01 2.38353781175561e-02 
4.35000000000000e-01 4.44988546062291e-01 2.40076797197096e-02 
4.65000000000000e-01 4.44133108158278e-01 2.37516113670735e-02 
4.95000000000000e-01 4.43286761695682e-01 2.44089966919866e-02 
5.25000000000000e-01 4.42378128243354e-01 2.59465259131752e-02 
5.55000000000000e-01 4.41404768107370e-01 2.69449020365551e-02 
5.85000000000000e-01 4.40382224621493e-01 2.74708096455523e-02 
6.15000000000000e-01 4.39360336256940e-01 2.89251122540144e-02 
6.45000000000000e-01 4.38259134236697e-01 3.12740619125596e-02 
6.75000000000000e-01 4.37064855546751e-01 3.35129331143770e-02 
7.05000000000000e-01 4.35757530514471e-01 3.56245448477370e-02 
7.35000000000000e-01 4.34399324710575e-01 3.86640070992953e-02 
7.65000000000000e-01 4.32895691683669e-01 4.26174540163151e-02 
7.95000000000000e-01 4.31222246778769e-01 4.69813116530310e-02 
8.25000000000000e-01 4.29340389417897e-01 5.15964299409441e-02 
8.55000000000000e-01 4.27263210215008e-01 5.68485297788481e-02 
8.85000000000000e-01 4.24929637256626e-01 6.27492770623023e-02 
9.15000000000000e-01 4.22311665501426e-01 6.91191318294292e-02 
9.45000000000000e-01 4.19403190040881e-01 7.59461947812198e-02 
9.75000000000000e-01 4.16180402424613e-01 8.31553100615666e-02 
1.00500000000000e+00 4.12624457980082e-01 9.05925944981810e-02 
1.03500000000000e+00 4.08672474669951e-01 9.80591969945509e-02 
1.06500000000000e+00 4.04283472720271e-01 1.05486865132854e-01 
1.09500000000000e+00 3.99434921502612e-01 1.12805406233023e-01 
1.12500000000000e+00 3.94115854492192e-01 1.19926568055623e-01 
1.15500000000000e+00 3.88302248020185e-01 1.26863845151036e-01 
1.18500000000000e+00 3.82020283312945e-01 1.33782029954881e-01 
1.21500000000000e+00 3.75220084689472e-01 1.40620197691126e-01 
1.24500000000000e+00 3.67767940420488e-01 1.47161360035333e-01 
1.27500000000000e+00 3.59638112118155e-01 1.53214604476175e-01 
1.30500000000000e+00 3.50816915564799e-01 1.58470856672437e-01 
1.33500000000000e+00 3.41272760942159e-01 1.62594702718801e-01 
1.36500000000000e+00 3.31007221958404e-01 1.65305045940312e-01 
1.39500000000000e+00 3.20080895609479e-01 1.66417348085259e-01 
1.42500000000000e+00 3.08555065190814e-01 1.65853320216908e-01 
1.45500000000000e+00 2.96522172587472e-01 1.63676578002936e-01 
1.48500000000000e+00 2.84096249016980e-01 1.60105130025979e-01 
1.51500000000000e+00 2.71402518329866e-01 1.55489851727965e-01 
1.54500000000000e+00 2.58741631125459e-01 1.50180240854296e-01 
1.57500000000000e+00 2.46223046047469e-01 1.44558681568455e-01 
1.60500000000000e+00 2.33936542539695e-01 1.38919655933430e-01 
1.63500000000000e+00 2.22014834216339e-01 1.33423217479531e-01 
1.66500000000000e+00 2.10525751219192e-01 1.28118257170349e-01 
1.69500000000000e+00 1.99464783479869e-01 1.22954576182270e-01 
1.72500000000000e+00 1.88863618979144e-01 1.17797852318119e-01 
1.75500000000000e+00 1.78796375205930e-01 1.12480364386714e-01 
1.78500000000000e+00 1.69253792313560e-01 1.06928085303098e-01 
1.81500000000000e+00 1.60239919521769e-01 1.01169236886143e-01 
1.84500000000000e+00 1.51762398247733e-01 9.53521485194690e-02 
1.87500000000000e+00 1.43830084738891e-01 8.96954702984361e-02 
1.90500000000000e+00 1.36429365694101e-01 8.44181023385775e-02 
1.93500000000000e+00 1.29615699448988e-01 7.96192766651101e-02 
1.96500000000000e+00 1.23385177872156e-01 7.53142092280488e-02 
1.99500000000000e+00 1.17694650356665e-01 7.14219462101564e-02 
2.02500000000000e+00 1.12506086319862e-01 6.78090306032525e-02 
2.05500000000000e+00 1.07772839167242e-01 6.43613859199648e-02 
2.08500000000000e+00 1.03452938395987e-01 6.10177326278270e-02 
2.11500000000000e+00 9.95023575362682e-02 5.77622183736398e-02 
2.14500000000000e+00 9.58165060112253e-02 5.46554032070083e-02 
2.17500000000000e+00 9.23801531104614e-02 5.17206813933352e-02 
2.20500000000000e+00 8.91847403343604e-02 4.89821392528730e-02 
2.23500000000000e+00 8.62142620983214e-02 4.64474304506059e-02 
2.26500000000000e+00 8.34599063502564e-02 4.41051769874285e-02 
2.29500000000000e+00 8.09114621277319e-02 4.19307161041853e-02 
2.32500000000000e+00 7.85456823206910e-02 3.98961456393589e-02 
2.35500000000000e+00 7.63399301881362e-02 3.79815357565973e-02 
2.38500000000000e+00 7.42727564184733e-02 3.61756510698213e-02 
2.41500000000000e+00 7.23282496230220e-02 3.44763377886451e-02 
2.44500000000000e+00 7.05050887916777e-02 3.28880785897494e-02 
2.47500000000000e+00 6.88007575118348e-02 3.14125336564466e-02 
2.50500000000000e+00 6.72127945972891e-02 3.00476162226792e-02 
2.53500000000000e+00 6.57289145001519e-02 2.87930773056356e-02 
2.56500000000000e+00 6.43299853593481e-02 2.76344441571141e-02 
2.59500000000000e+00 6.30039266245433e-02 2.65532459797562e-02 
2.62500000000000e+00 6.17418689052046e-02 2.55329746003669e-02 
2.65500000000000e+00 6.05353384090304e-02 2.45607397009310e-02 
2.68500000000000e+00 5.93860757659346e-02 2.36388745078945e-02 
2.71500000000000e+00 5.82954131257630e-02 2.27767619526802e-02 
2.74500000000000e+00 5.72605459947328e-02 2.19804955444238e-02 
2.77500000000000e+00 5.62794476864059e-02 2.12505128294256e-02 
2.80500000000000e+00 5.53437998699481e-02 2.05755291663098e-02 
2.83500000000000e+00 5.44445045356106e-02 1.99416204146071e-02 
2.86500000000000e+00 5.35784435610200e-02 1.93406124374838e-02 
2.89500000000000e+00 5.27429399232666e-02 1.87694406969413e-02 
2.92500000000000e+00 5.19388046885891e-02 1.82325654791156e-02 
2.95500000000000e+00 5.11663230769852e-02 1.77360647889888e-02 
2.98500000000000e+00 5.04222593260325e-02 1.72793966035036e-02 
3.01500000000000e+00 4.97040218968603e-02 1.68578231276866e-02 
3.04500000000000e+00 4.90081620452010e-02 1.64631194933195e-02 
3.07500000000000e+00 4.83318089694549e-02 1.60877605572615e-02 
3.10500000000000e+00 4.76748626896935e-02 1.57298641414287e-02 
3.13500000000000e+00 4.70366916164303e-02 1.53902059240040e-02 
3.16500000000000e+00 4.64171826125733e-02 1.50711828672519e-02 
3.19500000000000e+00 4.58156322300204e-02 1.47747678757323e-02 
3.22500000000000e+00 4.52298731443406e-02 1.44984996441814e-02 
3.25500000000000e+00 4.46586913665904e-02 1.42375338033345e-02 
3.28500000000000e+00 4.41008217825009e-02 1.39872555553858e-02 
3.31500000000000e+00 4.35556307348039e-02 1.37454153412287e-02 
3.34500000000000e+00 4.30229368507246e-02 1.35128502740581e-02 
3.37500000000000e+00 4.25023207422947e-02 1.32901902279265e-02 
3.40500000000000e+00 4.19933115111020e-02 1.30772635369925e-02 
3.43500000000000e+00 4.14952025781002e-02 1.28730921755388e-02 
3.46500000000000e+00 4.10071329795078e-02 1.26757071246560e-02 
3.49500000000000e+00 4.05286948113029e-02 1.24836149503918e-02 
3.52500000000000e+00 4.00596068885154e-02 1.22965429041836e-02 
3.55500000000000e+00 3.95997488357813e-02 1.21150912871751e-02 
3.58500000000000e+00 3.91489081036180e-02 1.19406784011508e-02 
3.61500000000000e+00 3.87068838167932e-02 1.17748896307762e-02 
3.64500000000000e+00 3.82732203239718e-02 1.16175037466714e-02 
3.67500000000000e+00 3.78476315298575e-02 1.14663262138291e-02 
3.70500000000000e+00 3.74298354395810e-02 1.13201337983272e-02 
3.73500000000000e+00 3.70196305155956e-02 1.11790729978904e-02 
3.76500000000000e+00 3.66167702938345e-02 1.10431725071543e-02 
3.79500000000000e+00 3.62210330874635e-02 1.09118786900898e-02 
3.82500000000000e+00 3.58320666863279e-02 1.07846093969408e-02 
3.85500000000000e+00 3.54495625336853e-02 1.06609192845446e-02 
3.88500000000000e+00 3.50732929126042e-02 1.05403367211940e-02 
3.91500000000000e+00 3.47030273672508e-02 1.04228568692349e-02 
3.94500000000000e+00 3.43388021220920e-02 1.03089314835901e-02 
3.97500000000000e+00 3.39804251491607e-02 1.01988787445918e-02 
4.00500000000000e+00 3.36278913033326e-02 1.00926504535876e-02 
4.03500000000000e+00 3.32803787166150e-02 9.99023019134183e-03 
4.06500000000000e+00 3.29373747364215e-02 9.89137425717851e-03 
4.09500000000000e+00 3.25988995649090e-02 9.79585853524754e-03 
4.12500000000000e+00 3.22647631323250e-02 9.70361414843102e-03 
4.15500000000000e+00 3.19347501604204e-02 9.61444986482370e-03 
4.18500000000000e+00 3.16087311594209e-02 9.52809749848926e-03 
4.21500000000000e+00 3.12865695126667e-02 9.44446821406519e-03 
4.24500000000000e+00 3.09682426417070e-02 9.36354677390828e-03 
4.27500000000000e+00 3.06536058830046e-02 9.28531774073810e-03 
4.30500000000000e+00 3.03425401750127e-02 9.20977591295431e-03 
4.33500000000000e+00 3.00349396829889e-02 9.13688669988738e-03 
4.36500000000000e+00 2.97306989165090e-02 9.06651731668901e-03 
4.39500000000000e+00 2.94297116268616e-02 8.99846225963974e-03 
4.42500000000000e+00 2.91318615881611e-02 8.93253050812044e-03 
4.45500000000000e+00 2.88370959325657e-02 8.86857559123184e-03 
4.48500000000000e+00 2.85453684359426e-02 8.80649809958384e-03 
4.51500000000000e+00 2.82565973326298e-02 8.74602621021672e-03 
4.54500000000000e+00 2.79707767516452e-02 8.68673127760527e-03 
4.57500000000000e+00 2.76880719881805e-02 8.62843737922430e-03 
4.60500000000000e+00 2.74084262018430e-02 8.57115612048787e-03 
4.63500000000000e+00 2.71317735430111e-02 8.51477573960892e-03 
4.66500000000000e+00 2.68580749073778e-02 8.45916319558409e-03 
4.69500000000000e+00 2.65872865717121e-02 8.40423696219953e-03 
4.72500000000000e+00 2.63193591816617e-02 8.34996597195164e-03 
4.75500000000000e+00 2.60542366361485e-02 8.29652117923451e-03 
4.78500000000000e+00 2.57918683852159e-02 8.24429957320924e-03 
4.81500000000000e+00 2.55321908227603e-02 8.19358191937022e-03 
4.84500000000000e+00 2.52751679549605e-02 8.14442879630795e-03 
4.87500000000000e+00 2.50207576730609e-02 8.09684570622048e-03 
4.90500000000000e+00 2.47688939767183e-02 8.05067145485162e-03 
4.93500000000000e+00 2.45194800598352e-02 8.00553435108091e-03 
4.96500000000000e+00 2.42724594346595e-02 7.96114239773155e-03 
4.99500000000000e+00 2.40278002690368e-02 7.91740881768222e-03 
5.02500000000000e+00 2.37853793842592e-02 7.87432294701946e-03 
5.05500000000000e+00 2.35449849171093e-02 7.83200756413741e-03 
5.08500000000000e+00 2.33065492616086e-02 7.79064382241622e-03 
5.11500000000000e+00 2.30700067216890e-02 7.75009804170900e-03 
5.14500000000000e+00 2.28352948912051e-02 7.71002333855557e-03 
5.17500000000000e+00 2.26024083968241e-02 7.67027288849084e-03 
5.20500000000000e+00 2.23713648463998e-02 7.63082464372930e-03 
5.23500000000000e+00 2.21421303840662e-02 7.59164129782243e-03 
5.26500000000000e+00 2.19146807237358e-02 7.55269694987270e-03 
5.29500000000000e+00 2.16890027344773e-02 7.51398356718651e-03 
5.32500000000000e+00 2.14650745773961e-02 7.47549840001029e-03 
5.35500000000000e+00 2.12428630296988e-02 7.43723995580810e-03 
5.38500000000000e+00 2.10223540166341e-02 7.39920137858701e-03 
5.41500000000000e+00 2.08035339310054e-02 7.36137191701295e-03 
5.44500000000000e+00 2.05863899625006e-02 7.32375191847129e-03 
5.47500000000000e+00 2.03709084756043e-02 7.28636826558852e-03 
5.50500000000000e+00 2.01570751720355e-02 7.24922800059074e-03 
5.53500000000000e+00 1.99449040597573e-02 7.21228730173007e-03 
5.56500000000000e+00 1.97343974608071e-02 7.17551072211091e-03 
5.59500000000000e+00 1.95255434971773e-02 7.13889817669321e-03 
5.62500000000000e+00 1.93183255305940e-02 7.10246508891837e-03 
5.65500000000000e+00 1.91127224866932e-02 7.06623148022248e-03 
5.68500000000000e+00 1.89087217777087e-02 7.03021092609289e-03 
5.71500000000000e+00 1.87063105593357e-02 6.99439768351372e-03 
5.74500000000000e+00 1.85054899734893e-02 6.95876871584250e-03 
5.77500000000000e+00 1.83062483889747e-02 6.92331590830873e-03 
5.80500000000000e+00 1.81085742712007e-02 6.88804188061754e-03 
5.83500000000000e+00 1.79124477273293e-02 6.85295042604899e-03 
5.86500000000000e+00 1.77178531026826e-02 6.81806216338375e-03 
5.89500000000000e+00 1.75247756690679e-02 6.78340358102271e-03 
5.92500000000000e+00 1.73331612814781e-02 6.74899300102972e-03 
5.95500000000000e+00 1.71429368765131e-02 6.71484284639409e-03 
5.98500000000000e+00 1.69540902828835e-02 6.68095204908466e-03 
6.01500000000000e+00 1.67666094385921e-02 6.64721548459439e-03 
6.04500000000000e+00 1.65801593953992e-02 6.61345824342697e-03 
6.07500000000000e+00 1.63947044216735e-02 6.57954479462891e-03 
6.10500000000000e+00 1.62102474351899e-02 6.54547304915795e-03 
6.13500000000000e+00 1.60268268728956e-02 6.51126470881170e-03 
6.16500000000000e+00 1.58444626949268e-02 6.47694169251834e-03 
6.19500000000000e+00 1.56631568484833e-02 6.44250928276755e-03 
6.22500000000000e+00 1.54829111999611e-02 6.40795757866800e-03 
6.25500000000000e+00 1.53037283742213e-02 6.37328071192631e-03 
6.28500000000000e+00 1.51256105006287e-02 6.33848883458848e-03 
6.31500000000000e+00 1.49485591470117e-02 6.30359678964007e-03 
6.34500000000000e+00 1.47725755742347e-02 6.26860917195450e-03 
6.37500000000000e+00 1.45976611733591e-02 6.23352030355476e-03 
6.40500000000000e+00 1.44238175853255e-02 6.19830818875866e-03 
6.43500000000000e+00 1.42510483405110e-02 6.16293796897571e-03 
6.46500000000000e+00 1.40793574296067e-02 6.12739778742348e-03 
6.49500000000000e+00 1.39087481529522e-02 6.09170252266676e-03 
6.52500000000000e+00 1.37392231799206e-02 6.05587688418522e-03 
6.55500000000000e+00 1.35707842351861e-02 6.01994364390280e-03 
6.58500000000000e+00 1.34034328707090e-02 5.98391393673260e-03 
6.61500000000000e+00 1.32371704575179e-02 5.94778555129262e-03 
6.64500000000000e+00 1.30720081279811e-02 5.91154919833278e-03 
6.67500000000000e+00 1.29079475711478e-02 5.87521000105746e-03 
6.70500000000000e+00 1.27449900733018e-02 5.83878652022169e-03 
6.73500000000000e+00 1.25831361179776e-02 5.80230615913930e-03 
6.76500000000000e+00 1.24223854044703e-02 5.76579381233632e-03 
6.79500000000000e+00 1.22627372563497e-02 5.72926434555186e-03 
6.82500000000000e+00 1.21041894967634e-02 5.69272787198240e-03 
6.85500000000000e+00 1.19467386766221e-02 5.65618644785026e-03 
6.88500000000000e+00 1.17903835599992e-02 5.61963693887456e-03 
6.91500000000000e+00 1.16351230785969e-02 5.58307720476162e-03 
6.94500000000000e+00 1.14809034801657e-02 5.54651253045469e-03 
6.97500000000000e+00 1.13277245171117e-02 5.50993913134110e-03 
7.00500000000000e+00 1.11755858488352e-02 5.47333081598461e-03 
7.03500000000000e+00 1.10244553264386e-02 5.43662388769412e-03 
7.06500000000000e+00 1.08743214476841e-02 5.39976946237017e-03 
7.09500000000000e+00 1.07251887030457e-02 5.36268108499975e-03 
7.12500000000000e+00 1.05770108021037e-02 5.32505865479137e-03 
7.15500000000000e+00 1.04297006811985e-02 5.28655446726542e-03 
7.18500000000000e+00 1.02832892137899e-02 5.24705412622569e-03 
7.21500000000000e+00 1.01378060277539e-02 5.20660798669163e-03 
7.24500000000000e+00 9.99327907425251e-03 5.16526113243757e-03 
7.27500000000000e+00 9.84973578239598e-03 5.12304789494780e-03 
7.30500000000000e+00 9.70720276414975e-03 5.07999702216148e-03 
7.33500000000000e+00 9.56570627738566e-03 5.03613399596016e-03 
7.36500000000000e+00 9.42527188329685e-03 4.99148884441948e-03 
7.39500000000000e+00 9.28592402244659e-03 4.94612042271218e-03 
7.42500000000000e+00 9.14769351076657e-03 4.90014585281922e-03 
7.45500000000000e+00 9.01061506865199e-03 4.85369370883473e-03 
7.48500000000000e+00 8.87470326087782e-03 4.80683311367968e-03 
7.51500000000000e+00 8.73997190329171e-03 4.75959036431995e-03 
7.54500000000000e+00 8.60643424805412e-03 4.71199029135600e-03 
7.57500000000000e+00 8.47410277210144e-03 4.66406067804873e-03 
7.60500000000000e+00 8.34298916365475e-03 4.61583040529811e-03 
7.63500000000000e+00 8.21310436269419e-03 4.56732641102186e-03 
7.66500000000000e+00 8.08445855876900e-03 4.51857465020910e-03 
7.69500000000000e+00 7.95706128208446e-03 4.46960109322567e-03 
7.72500000000000e+00 7.83092992639801e-03 4.42042788074089e-03 
7.75500000000000e+00 7.70608952332900e-03 4.37106751026888e-03 
7.78500000000000e+00 7.58254752806033e-03 4.32153391761862e-03 
7.81500000000000e+00 7.46031102673507e-03 4.27184945861739e-03 
7.84500000000000e+00 7.33937733117891e-03 4.22204517277443e-03 
7.87500000000000e+00 7.21975195070132e-03 4.17214207292882e-03 
7.90500000000000e+00 7.10144005021876e-03 4.12215507461306e-03 
7.93500000000000e+00 6.98440961294900e-03 4.07210585640470e-03 
7.96500000000000e+00 6.86864787177824e-03 4.02200387668243e-03 
7.99500000000000e+00 6.75416019701007e-03 3.97189885635416e-03 
8.02500000000000e+00 6.64096223719881e-03 3.92193407675506e-03 
8.05500000000000e+00 6.52910642642894e-03 3.87221577306018e-03 
8.08500000000000e+00 6.41856691441525e-03 3.82275989715984e-03 
8.11500000000000e+00 6.30933952575657e-03 3.77355368229371e-03 
8.14500000000000e+00 6.20144108210995e-03 3.72460882175006e-03 
8.17500000000000e+00 6.09486546074864e-03 3.67594185494545e-03 
8.20500000000000e+00 5.98960376987921e-03 3.62756487535070e-03 
8.23500000000000e+00 5.88564509518370e-03 3.57949122713558e-03 
8.26500000000000e+00 5.78298055524779e-03 3.53173107017899e-03 
8.29500000000000e+00 5.68160333426059e-03 3.48428934475603e-03 
8.32500000000000e+00 5.58149094750715e-03 3.43717149546854e-03 
8.35500000000000e+00 5.48260599309022e-03 3.39038719317541e-03 
8.38500000000000e+00 5.38494114044008e-03 3.34393923558901e-03 
8.41500000000000e+00 5.28849009357297e-03 3.29779587669251e-03 
8.44500000000000e+00 5.19325078046680e-03 3.25188846343081e-03 
8.47500000000000e+00 5.09922072330208e-03 3.20619127725752e-03 
8.50500000000000e+00 5.00639706046408e-03 3.16070129510255e-03 
8.53500000000000e+00 4.91476525527850e-03 3.11539798930373e-03 
8.56500000000000e+00 4.82431106268983e-03 3.07026916802815e-03 
8.59500000000000e+00 4.73503328765587e-03 3.02531104910612e-03 
8.62500000000000e+00 4.64694137082357e-03 2.98049515182717e-03 
8.65500000000000e+00 4.56005573760229e-03 2.93578103162835e-03 
8.68500000000000e+00 4.47437688307475e-03 2.89116784511974e-03 
8.71500000000000e+00 4.38990478959028e-03 2.84667254309021e-03 
8.74500000000000e+00 4.30663895295532e-03 2.80231151753769e-03 
8.77500000000000e+00 4.22457837559274e-03 2.75810023105886e-03 
8.80500000000000e+00 4.14372158963001e-03 2.71405686796551e-03 
8.83500000000000e+00 4.06406631722433e-03 2.67020373695694e-03 
8.86500000000000e+00 3.98560968752109e-03 2.62656025913009e-03 
8.89500000000000e+00 3.90834840046480e-03 2.58313999400597e-03 
8.92500000000000e+00 3.83227747743193e-03 2.53995411458468e-03 
8.95500000000000e+00 3.75739041416425e-03 2.49701307581061e-03 
8.98500000000000e+00 3.68368303546501e-03 2.45432640572660e-03 
9.01500000000000e+00 3.61115082463711e-03 2.41193398706954e-03 
9.04500000000000e+00 3.53985430579332e-03 2.36986624078674e-03 
9.07500000000000e+00 3.46978357740394e-03 2.32816115136289e-03 
9.10500000000000e+00 3.40092855504853e-03 2.28682367470354e-03 
9.13500000000000e+00 3.33327374800794e-03 2.24586092353076e-03 
9.16500000000000e+00 3.26680633148252e-03 2.20527779615129e-03 
9.19500000000000e+00 3.20151599394495e-03 2.16508842690506e-03 
9.22500000000000e+00 3.13738892325127e-03 2.12533963977747e-03 
9.25500000000000e+00 3.07440770065763e-03 2.08608678628382e-03 
9.28500000000000e+00 3.01255817774678e-03 2.04734849090172e-03 
9.31500000000000e+00 2.95182628655917e-03 2.00912208694697e-03 
