Energy(eV)           EEDF(eV^-(3/2))      Anisotropy(eV^-(3/2))
8.68055555555556e-03 8.93939117674573e-01 3.42384260308085e-02 
2.60416666666667e-02 8.91691912674015e-01 2.78920543893783e-02 
4.34027777777778e-02 8.87683942290650e-01 5.38815243029389e-02 
6.07638888888889e-02 8.82515951095903e-01 7.50966841577280e-02 
7.81250000000000e-02 8.76848856790455e-01 8.99846767276074e-02 
9.54861111111111e-02 8.70925521197343e-01 9.97490500847530e-02 
1.12847222222222e-01 8.65067799742386e-01 1.05696204931314e-01 
1.30208333333333e-01 8.59348596758869e-01 1.09332488412009e-01 
1.47569444444444e-01 8.53661928560705e-01 1.12024049119946e-01 
1.64930555555556e-01 8.48079204028776e-01 1.14257397423518e-01 
1.82291666666667e-01 8.42729984787181e-01 1.15476364558062e-01 
1.99652777777778e-01 8.37567384902870e-01 1.16059173126165e-01 
2.17013888888889e-01 8.32533038004638e-01 1.16654807639051e-01 
2.34375000000000e-01 8.27568988351679e-01 1.17109596867167e-01 
2.51736111111111e-01 8.22683754370373e-01 1.17451677290495e-01 
2.69097222222222e-01 8.17915447212321e-01 1.18560414253717e-01 
2.86458333333333e-01 8.13221259415112e-01 1.20149997402385e-01 
3.03819444444445e-01 8.08626992033908e-01 1.19753516779220e-01 
3.21180555555556e-01 8.04185828396663e-01 1.16997462011573e-01 
3.38541666666667e-01 7.99883032603076e-01 1.13521384046205e-01 
3.55902777777778e-01 7.95783622745708e-01 1.09886516545117e-01 
3.73263888888889e-01 7.91837279374041e-01 1.06335505806280e-01 
3.90625000000000e-01 7.88025433789902e-01 1.03893003110203e-01 
4.07986111111111e-01 7.84274057961950e-01 1.02539018643229e-01 
4.25347222222222e-01 7.80569590716303e-01 1.00839454957249e-01 
4.42708333333333e-01 7.76942739420697e-01 9.83843659440212e-02 
4.60069444444445e-01 7.73330795629473e-01 9.54967980325471e-02 
4.77430555555556e-01 7.69909743966436e-01 9.29628377703410e-02 
4.94791666666667e-01 7.66563558406116e-01 9.11995608389647e-02 
5.12152777777778e-01 7.63274100287917e-01 9.03740343866817e-02 
5.29513888888889e-01 7.59993808878005e-01 9.04825614674058e-02 
5.46875000000000e-01 7.56708862043960e-01 9.03647798443059e-02 
5.64236111111111e-01 7.53447710802965e-01 8.92265052858680e-02 
5.81597222222222e-01 7.50150591797565e-01 8.75346503519326e-02 
5.98958333333333e-01 7.47023544232080e-01 8.66118114243488e-02 
6.16319444444445e-01 7.43910150424795e-01 8.70090576430387e-02 
6.33680555555556e-01 7.40779654061007e-01 8.81124590961154e-02 
6.51041666666667e-01 7.37618641272403e-01 8.91879730297438e-02 
6.68402777777778e-01 7.34443101648095e-01 9.01403964456486e-02 
6.85763888888889e-01 7.31246329488135e-01 9.06460920808608e-02 
7.03125000000000e-01 7.27965454105476e-01 9.06845561466119e-02 
7.20486111111111e-01 7.24783715077245e-01 9.16162028267913e-02 
7.37847222222222e-01 7.21536000920349e-01 9.36149959275556e-02 
7.55208333333333e-01 7.18203880855569e-01 9.59427364955535e-02 
7.72569444444445e-01 7.14782037610093e-01 9.84300129530111e-02 
7.89930555555556e-01 7.11263886412265e-01 1.00688623700495e-01 
8.07291666666667e-01 7.07579571308103e-01 1.02589093245201e-01 
8.24652777777778e-01 7.03868535551532e-01 1.05177666216685e-01 
8.42013888888889e-01 7.00031511177152e-01 1.08756246311156e-01 
8.59375000000000e-01 6.96020348190591e-01 1.12887535129469e-01 
8.76736111111111e-01 6.91815980663678e-01 1.17380062699149e-01 
8.94097222222222e-01 6.87405743016367e-01 1.22018675146771e-01 
9.11458333333334e-01 6.82764344498703e-01 1.26615037372108e-01 
9.28819444444445e-01 6.77914557792434e-01 1.31429043176874e-01 
9.46180555555556e-01 6.72903239547734e-01 1.36871219256819e-01 
9.63541666666667e-01 6.67656774559865e-01 1.42795378951727e-01 
9.80902777777778e-01 6.62161302192841e-01 1.49005538041561e-01 
9.98263888888889e-01 6.56405551117226e-01 1.55410658867624e-01 
1.01562500000000e+00 6.50352316797654e-01 1.61845577723012e-01 
1.03298611111111e+00 6.43926608937385e-01 1.68163280854236e-01 
1.05034722222222e+00 6.37157621848343e-01 1.74534669395880e-01 
1.06770833333333e+00 6.30057186543753e-01 1.81088336765923e-01 
1.08506944444444e+00 6.22579103000047e-01 1.87667729575786e-01 
1.10243055555556e+00 6.14716212426397e-01 1.94148100038677e-01 
1.11979166666667e+00 6.06471992306423e-01 2.00509331807651e-01 
1.13715277777778e+00 5.97845037963208e-01 2.06670634248061e-01 
1.15451388888889e+00 5.88806411728778e-01 2.12588175104903e-01 
1.17187500000000e+00 5.79416704108123e-01 2.18399290852214e-01 
1.18923611111111e+00 5.69636577499489e-01 2.24027146264256e-01 
1.20659722222222e+00 5.59466268694841e-01 2.29348933954953e-01 
1.22395833333333e+00 5.48831115031221e-01 2.34260621779560e-01 
1.24131944444444e+00 5.37719248909092e-01 2.38666256473778e-01 
1.25868055555556e+00 5.26139505594060e-01 2.42499842200011e-01 
1.27604166666667e+00 5.14122111649613e-01 2.45707041175147e-01 
1.29340277777778e+00 5.01672373533764e-01 2.48177010735760e-01 
1.31076388888889e+00 4.88809167714291e-01 2.49809326106941e-01 
1.32812500000000e+00 4.75525691981729e-01 2.50530981361774e-01 
1.34548611111111e+00 4.61855705812307e-01 2.50288016000093e-01 
1.36284722222222e+00 4.47833950976220e-01 2.49062057643254e-01 
1.38020833333333e+00 4.33522059603048e-01 2.46872962926218e-01 
1.39756944444444e+00 4.18959377527957e-01 2.43743721187420e-01 
1.41493055555556e+00 4.04200237268451e-01 2.39710929192374e-01 
1.43229166666667e+00 3.89299913185796e-01 2.34841036784948e-01 
1.44965277777778e+00 3.74313178036242e-01 2.29218584973387e-01 
1.46701388888889e+00 3.59303206928609e-01 2.22946485586711e-01 
1.48437500000000e+00 3.44327956496524e-01 2.16144733323437e-01 
1.50173611111111e+00 3.29448376321960e-01 2.08946102133618e-01 
1.51909722222222e+00 3.14788636473890e-01 2.01462168004152e-01 
1.53645833333333e+00 3.00436371055017e-01 1.93815484205631e-01 
1.55381944444444e+00 2.86439097615161e-01 1.86126032338826e-01 
1.57118055555556e+00 2.72823574180376e-01 1.78495863484672e-01 
1.58854166666667e+00 2.59619630423491e-01 1.71009077003921e-01 
1.60590277777778e+00 2.46846248425571e-01 1.63736704501446e-01 
1.62326388888889e+00 2.34563028432137e-01 1.56700958302278e-01 
1.64062500000000e+00 2.22781379816094e-01 1.49922209060002e-01 
1.65798611111111e+00 2.11488587267424e-01 1.43399572934030e-01 
1.67534722222222e+00 2.00669971739014e-01 1.37119603327244e-01 
1.69270833333333e+00 1.90312584138611e-01 1.31058922518848e-01 
1.71006944444444e+00 1.80398067432689e-01 1.25201209862929e-01 
1.72743055555556e+00 1.70979923898508e-01 1.19498816701946e-01 
1.74479166666667e+00 1.62032869122887e-01 1.13937059512688e-01 
1.76215277777778e+00 1.53536541060124e-01 1.08498051181497e-01 
1.77951388888889e+00 1.45474735451602e-01 1.03177267080162e-01 
1.79687500000000e+00 1.37831255243713e-01 9.79810490404641e-02 
1.81423611111111e+00 1.30592066599823e-01 9.29295396511514e-02 
1.83159722222222e+00 1.23746742725613e-01 8.80474814852698e-02 
1.84895833333333e+00 1.17278913282232e-01 8.33638942163066e-02 
1.86631944444444e+00 1.11176618049945e-01 7.89064198670528e-02 
1.88368055555556e+00 1.05424381674262e-01 7.46963210277202e-02 
1.90104166666667e+00 1.00005804999163e-01 7.07501609501619e-02 
1.91840277777778e+00 9.49310475648688e-02 6.70655523749449e-02 
1.93576388888889e+00 9.01983652208164e-02 6.36311863939471e-02 
1.95312500000000e+00 8.57855177075713e-02 6.04319105773779e-02 
1.97048611111111e+00 8.16740664958309e-02 5.74435066349896e-02 
1.98784722222222e+00 7.78422368633751e-02 5.46439701976405e-02 
2.00520833333333e+00 7.42747072706704e-02 5.20123791822366e-02 
2.02256944444445e+00 7.09519303597530e-02 4.95324885360544e-02 
2.03993055555556e+00 6.78559213642900e-02 4.71891624668152e-02 
2.05729166666667e+00 6.49701643440315e-02 4.49724557793351e-02 
2.07465277777778e+00 6.22773742082504e-02 4.28746243599793e-02 
2.09201388888889e+00 5.97610592876163e-02 4.08874287700116e-02 
2.10937500000000e+00 5.74073332006076e-02 3.89971932583548e-02 
2.12673611111111e+00 5.51799858320116e-02 3.72051253046475e-02 
2.14409722222222e+00 5.30716362245304e-02 3.54985506168866e-02 
2.16145833333333e+00 5.10761018791194e-02 3.38700733399069e-02 
2.17881944444445e+00 4.91867047737828e-02 3.23151367902913e-02 
2.19618055555556e+00 4.74025014479578e-02 3.08300443742208e-02 
2.21354166666667e+00 4.57176809033674e-02 2.94153201554658e-02 
2.23090277777778e+00 4.41254673220740e-02 2.80733912197340e-02 
2.24826388888889e+00 4.26236882145570e-02 2.68043675385035e-02 
2.26562500000000e+00 4.12075312968263e-02 2.56094456869952e-02 
2.28298611111111e+00 3.98725516632331e-02 2.44895799164704e-02 
2.30034722222222e+00 3.86135090377072e-02 2.34420535693895e-02 
2.31770833333333e+00 3.74222531768856e-02 2.24621169943135e-02 
2.33506944444445e+00 3.62935585783000e-02 2.15417207197120e-02 
2.35243055555556e+00 3.52204280822392e-02 2.06734076534058e-02 
2.36979166666667e+00 3.41984851454057e-02 1.98506836737728e-02 
2.38715277777778e+00 3.32240697588237e-02 1.90680323799054e-02 
2.40451388888889e+00 3.22939713757117e-02 1.83201432219205e-02 
2.42187500000000e+00 3.14068883255208e-02 1.76042749182001e-02 
2.43923611111111e+00 3.05618679911554e-02 1.69184434944322e-02 
2.45659722222222e+00 2.97572852541465e-02 1.62638753933808e-02 
2.47395833333333e+00 2.89938160169091e-02 1.56427165802895e-02 
2.49131944444445e+00 2.82687639624085e-02 1.50569952185672e-02 
2.50868055555556e+00 2.75809784053090e-02 1.45061803063378e-02 
2.52604166666667e+00 2.69247003690606e-02 1.39909091290988e-02 
2.54340277777778e+00 2.62970185908017e-02 1.35077257042828e-02 
2.56076388888889e+00 2.56959204922374e-02 1.30546580831085e-02 
2.57812500000000e+00 2.51190084309296e-02 1.26272927184140e-02 
2.59548611111111e+00 2.45630026106764e-02 1.22205152416878e-02 
2.61284722222222e+00 2.40275617954283e-02 1.18301466770530e-02 
2.63020833333333e+00 2.35105233036809e-02 1.14531019474576e-02 
2.64756944444445e+00 2.30116372606677e-02 1.10873160783766e-02 
2.66493055555556e+00 2.25310258023487e-02 1.07330853783772e-02 
2.68229166666667e+00 2.20678448644411e-02 1.03907522588870e-02 
2.69965277777778e+00 2.16223023740141e-02 1.00623834269882e-02 
2.71701388888889e+00 2.11944535689423e-02 9.75006258632032e-03 
2.73437500000000e+00 2.07827319778312e-02 9.45482403092814e-03 
2.75173611111111e+00 2.03870931124785e-02 9.17713157130173e-03 
2.76909722222222e+00 2.00059684882003e-02 8.91623122795353e-03 
2.78645833333333e+00 1.96379309702387e-02 8.66974538748775e-03 
2.80381944444445e+00 1.92823084410453e-02 8.43566644153587e-03 
2.82118055555556e+00 1.89371392224140e-02 8.21163265514111e-03 
2.83854166666667e+00 1.86015661480177e-02 7.99548559714765e-03 
2.85590277777778e+00 1.82756036402855e-02 7.78596908877965e-03 
2.87326388888889e+00 1.79584363448974e-02 7.58226622570893e-03 
2.89062500000000e+00 1.76503044782318e-02 7.38461306451049e-03 
2.90798611111111e+00 1.73511277119938e-02 7.19396222259878e-03 
2.92534722222222e+00 1.70605281284983e-02 7.01097749577531e-03 
2.94270833333333e+00 1.67785219102721e-02 6.83657226378052e-03 
2.96006944444445e+00 1.65046337303653e-02 6.67106402226930e-03 
2.97743055555556e+00 1.62382719100304e-02 6.51421657816481e-03 
2.99479166666667e+00 1.59791387936779e-02 6.36548291214304e-03 
3.01215277777778e+00 1.57263969597210e-02 6.22372730502796e-03 
3.02951388888889e+00 1.54797113639071e-02 6.08775838106387e-03 
3.04687500000000e+00 1.52387967041050e-02 5.95661738800113e-03 
3.06423611111111e+00 1.50032285965238e-02 5.82929396176337e-03 
3.08159722222222e+00 1.47729244525987e-02 5.70524541143790e-03 
3.09895833333333e+00 1.45478160156148e-02 5.58401644052108e-03 
3.11631944444445e+00 1.43277608341929e-02 5.46556141559833e-03 
3.13368055555556e+00 1.41128421178198e-02 5.35074403910858e-03 
3.15104166666667e+00 1.39028816154414e-02 5.24028905604941e-03 
3.16840277777778e+00 1.36976772139401e-02 5.13433501341930e-03 
3.18576388888889e+00 1.34970866660141e-02 5.03280980168784e-03 
3.20312500000000e+00 1.33007606941561e-02 4.93539639520430e-03 
3.22048611111111e+00 1.31085283519002e-02 4.84176733931172e-03 
3.23784722222222e+00 1.29202139086219e-02 4.75137955347675e-03 
3.25520833333333e+00 1.27355658467368e-02 4.66324807486484e-03 
3.27256944444445e+00 1.25545022255788e-02 4.57667603652757e-03 
3.28993055555556e+00 1.23769548473859e-02 4.49141672018002e-03 
3.30729166666667e+00 1.22028490619873e-02 4.40745723154051e-03 
3.32465277777778e+00 1.20321590551232e-02 4.32495756209957e-03 
3.34201388888889e+00 1.18648359574456e-02 4.24390013751371e-03 
3.35937500000000e+00 1.17008099461920e-02 4.16421862732469e-03 
3.37673611111111e+00 1.15400615790755e-02 4.08597693669065e-03 
3.39409722222222e+00 1.13824953619561e-02 4.00912867951385e-03 
3.41145833333333e+00 1.12280172859765e-02 3.93366103900040e-03 
3.42881944444445e+00 1.10765586380154e-02 3.85963858753818e-03 
3.44618055555556e+00 1.09279929547306e-02 3.78688490769900e-03 
3.46354166666667e+00 1.07822606306289e-02 3.71517209764330e-03 
3.48090277777778e+00 1.06393224918039e-02 3.64440064647443e-03 
3.49826388888889e+00 1.04991247002181e-02 3.57449257420674e-03 
3.51562500000000e+00 1.03616431474999e-02 3.50546763416667e-03 
3.53298611111111e+00 1.02268605514621e-02 3.43739010673918e-03 
3.55034722222222e+00 1.00947365035292e-02 3.37023440874524e-03 
3.56770833333333e+00 9.96522579921314e-03 3.30418830984618e-03 
3.58506944444445e+00 9.83834567554294e-03 3.23980720183680e-03 
3.60243055555556e+00 9.71406292798759e-03 3.17766669504811e-03 
3.61979166666667e+00 9.59232895836101e-03 3.11796818605065e-03 
3.63715277777778e+00 9.47299664801940e-03 3.06038899205339e-03 
3.65451388888889e+00 9.35605637775390e-03 3.00435339224949e-03 
3.67187500000000e+00 9.24147174711276e-03 2.94961548176965e-03 
3.68923611111111e+00 9.12918005746319e-03 2.89610721740715e-03 
3.70659722222222e+00 9.01912369147047e-03 2.84382934286219e-03 
3.72395833333333e+00 8.91126066681635e-03 2.79287743938704e-03 
3.74131944444445e+00 8.80551982571847e-03 2.74324652210124e-03 
3.75868055555556e+00 8.70184269250580e-03 2.69476342205079e-03 
3.77604166666667e+00 8.60018785345336e-03 2.64727649041603e-03 
3.79340277777778e+00 8.50050596211278e-03 2.60072049046325e-03 
3.81076388888889e+00 8.40274267455839e-03 2.55508422167562e-03 
3.82812500000000e+00 8.30686067095419e-03 2.51036984072447e-03 
3.84548611111111e+00 8.21281112235163e-03 2.46653533484359e-03 
3.86284722222222e+00 8.12055053906649e-03 2.42351918451074e-03 
3.88020833333333e+00 8.03004664956895e-03 2.38128033028819e-03 
3.89756944444445e+00 7.94124651305346e-03 2.33982147587857e-03 
3.91493055555556e+00 7.85412027293708e-03 2.29923221872167e-03 
3.93229166666667e+00 7.76864587267795e-03 2.25960484456472e-03 
3.94965277777778e+00 7.68478093191446e-03 2.22095453536303e-03 
3.96701388888889e+00 7.60248337007527e-03 2.18330156859649e-03 
3.98437500000000e+00 7.52175436801979e-03 2.14664594155260e-03 
4.00173611111111e+00 7.44256191191725e-03 2.11096980057181e-03 
4.01909722222222e+00 7.36480989438493e-03 2.07628929970363e-03 
4.03645833333333e+00 7.28842051360494e-03 2.04260306409286e-03 
4.05381944444445e+00 7.21335180325547e-03 2.00987966095172e-03 
4.07118055555556e+00 7.13959755803439e-03 1.97808126851737e-03 
4.08854166666667e+00 7.06713384958724e-03 1.94719518321612e-03 
4.10590277777778e+00 6.99592125297584e-03 1.91720673215282e-03 
4.12326388888889e+00 6.92590643958791e-03 1.88807850229032e-03 
4.14062500000000e+00 6.85705312820153e-03 1.85975339696369e-03 
4.15798611111111e+00 6.78932954091598e-03 1.83217559239460e-03 
4.17534722222222e+00 6.72270583672602e-03 1.80531762259714e-03 
4.19270833333333e+00 6.65715126930019e-03 1.77917823218338e-03 
4.21006944444445e+00 6.59263698203128e-03 1.75376625391138e-03 
4.22743055555556e+00 6.52914818807641e-03 1.72909182784292e-03 
4.24479166666667e+00 6.46665252605042e-03 1.70515172362572e-03 
4.26215277777778e+00 6.40511663307759e-03 1.68193815589991e-03 
4.27951388888889e+00 6.34451070816540e-03 1.65945833773852e-03 
4.29687500000000e+00 6.28480469800824e-03 1.63771141027981e-03 
4.31423611111111e+00 6.22596923968541e-03 1.61668184186657e-03 
4.33159722222222e+00 6.16797613892181e-03 1.59635283170810e-03 
4.34895833333333e+00 6.11079799281203e-03 1.57669750180331e-03 
4.36631944444445e+00 6.05440829298642e-03 1.55767568521241e-03 
4.38368055555556e+00 5.99878242455285e-03 1.53925555097431e-03 
4.40104166666667e+00 5.94389624771482e-03 1.52141411092823e-03 
4.41840277777778e+00 5.88972562473290e-03 1.50412420778829e-03 
4.43576388888889e+00 5.83625628689607e-03 1.48735995056938e-03 
4.45312500000000e+00 5.78348275905225e-03 1.47110437678792e-03 
4.47048611111111e+00 5.73138421040483e-03 1.45534727316944e-03 
4.48784722222222e+00 5.67994052579098e-03 1.44007666962540e-03 
4.50520833333333e+00 5.62913217422704e-03 1.42523742200945e-03 
4.52256944444445e+00 5.57892731675569e-03 1.41072788977635e-03 
4.53993055555556e+00 5.52936522566397e-03 1.39648204552055e-03 
4.55729166666667e+00 5.48045317542605e-03 1.38251008197132e-03 
4.57465277777778e+00 5.43217787892003e-03 1.36881947161076e-03 
4.59201388888889e+00 5.38452628877023e-03 1.35540292610296e-03 
4.60937500000000e+00 5.33748551673964e-03 1.34224085176349e-03 
4.62673611111111e+00 5.29104034564611e-03 1.32930394181473e-03 
4.64409722222222e+00 5.24518353363517e-03 1.31657170227982e-03 
4.66145833333333e+00 5.19990536606007e-03 1.30403515528068e-03 
4.67881944444445e+00 5.15519618813202e-03 1.29168745597790e-03 
4.69618055555556e+00 5.11104675235188e-03 1.27952343855833e-03 
4.71354166666667e+00 5.06744790853743e-03 1.26753685533196e-03 
4.73090277777778e+00 5.02439068174720e-03 1.25572811565484e-03 
4.74826388888889e+00 4.98186628358169e-03 1.24415079727804e-03 
4.76562500000000e+00 4.93986233172937e-03 1.23290768649610e-03 
4.78298611111111e+00 4.89836323141499e-03 1.22206012443701e-03 
4.80034722222222e+00 4.85735279010122e-03 1.21161151904029e-03 
4.81770833333333e+00 4.81681552397259e-03 1.20155701669991e-03 
4.83506944444445e+00 4.77673653033508e-03 1.19189994014461e-03 
4.85243055555556e+00 4.73710530270340e-03 1.18264248224867e-03 
4.86979166666667e+00 4.69790636507645e-03 1.17378030689841e-03 
4.88715277777778e+00 4.65912449809549e-03 1.16530491034636e-03 
4.90451388888889e+00 4.62074506028183e-03 1.15716949984569e-03 
4.92187500000000e+00 4.58274387529537e-03 1.14928087781562e-03 
4.93923611111111e+00 4.54510900626403e-03 1.14157298453645e-03 
4.95659722222222e+00 4.50783464308061e-03 1.13403045070893e-03 
4.97395833333333e+00 4.47091388373946e-03 1.12664992749471e-03 
4.99131944444445e+00 4.43434002166789e-03 1.11942808802286e-03 
5.00868055555556e+00 4.39810637437363e-03 1.11236319886004e-03 
5.02604166666667e+00 4.36218658743984e-03 1.10546438427681e-03 
5.04340277777778e+00 4.32657338743193e-03 1.09877163149715e-03 
5.06076388888889e+00 4.29125572903735e-03 1.09233740224742e-03 
5.07812500000000e+00 4.25621887509080e-03 1.08616017489548e-03 
5.09548611111111e+00 4.22145113936225e-03 1.08020071312903e-03 
5.11284722222222e+00 4.18694327575691e-03 1.07440301649057e-03 
5.13020833333333e+00 4.15268402891101e-03 1.06870484184075e-03 
5.14756944444445e+00 4.11867033218443e-03 1.06307940063065e-03 
5.16493055555556e+00 4.08490110270149e-03 1.05752604809300e-03 
5.18229166666667e+00 4.05137997826656e-03 1.05204331169040e-03 
5.19965277777778e+00 4.01810391023389e-03 1.04662807785328e-03 
5.21701388888889e+00 3.98506849034252e-03 1.04127203688201e-03 
5.23437500000000e+00 3.95226961519733e-03 1.03596695158824e-03 
5.25173611111111e+00 3.91970497422977e-03 1.03070928366076e-03 
5.26909722222222e+00 3.88737234030046e-03 1.02549806610074e-03 
5.28645833333333e+00 3.85527002701787e-03 1.02033244201469e-03 
5.30381944444445e+00 3.82339611287575e-03 1.01521161189522e-03 
5.32118055555556e+00 3.79174668588217e-03 1.01013501988559e-03 
5.33854166666667e+00 3.76031895405326e-03 1.00510190876390e-03 
5.35590277777778e+00 3.72911089512721e-03 1.00011142425340e-03 
5.37326388888889e+00 3.69812050110149e-03 9.95162701073382e-04 
5.39062500000000e+00 3.66734579283758e-03 9.90254944679296e-04 
