Energy(eV)           EEDF(eV^-(3/2))      Anisotropy(eV^-(3/2))
1.04166666666667e-02 1.68602983887519e-01 -1.05675530915387e-03 
3.12500000000000e-02 1.68618363190305e-01 -3.27784226587008e-04 
5.20833333333333e-02 1.68630795278956e-01 2.07851686140661e-04 
7.29166666666667e-02 1.68640314049593e-01 5.60044908934200e-04 
9.37500000000000e-02 1.68646562043880e-01 8.57518001323315e-04 
1.14583333333333e-01 1.68649362554938e-01 1.13093845341120e-03 
1.35416666666667e-01 1.68648577128517e-01 1.68365469203560e-03 
1.56250000000000e-01 1.68637571100394e-01 2.44452387601918e-03 
1.77083333333333e-01 1.68616328083902e-01 2.90053243405622e-03 
1.97916666666667e-01 1.68589969298166e-01 3.17454454096169e-03 
2.18750000000000e-01 1.68556924494847e-01 3.46989484420593e-03 
2.39583333333333e-01 1.68517918757252e-01 3.71088570391045e-03 
2.60416666666667e-01 1.68473390781648e-01 4.42815456490876e-03 
2.81250000000000e-01 1.68407775917588e-01 5.59271026316092e-03 
3.02083333333333e-01 1.68320602994050e-01 6.48578528860015e-03 
3.22916666666667e-01 1.68218866740556e-01 7.05160994850342e-03 
3.43750000000000e-01 1.68098543627490e-01 7.27419247757871e-03 
3.64583333333333e-01 1.67981751012537e-01 7.64930283186195e-03 
3.85416666666667e-01 1.67847958055358e-01 8.70127473095493e-03 
4.06250000000000e-01 1.67684633647435e-01 9.85388515896730e-03 
4.27083333333333e-01 1.67499438905171e-01 1.06091536551573e-02 
4.47916666666667e-01 1.67299470944184e-01 1.08310739686297e-02 
4.68750000000000e-01 1.67073053056821e-01 1.06253387853711e-02 
4.89583333333333e-01 1.66873865577539e-01 1.11993093088986e-02 
5.10416666666667e-01 1.66640505746667e-01 1.27111143525964e-02 
5.31250000000000e-01 1.66372985014130e-01 1.38375944098955e-02 
5.52083333333333e-01 1.66088723110810e-01 1.42938673089526e-02 
5.72916666666667e-01 1.65777093255444e-01 1.40881440536748e-02 
5.93750000000000e-01 1.65470227921875e-01 1.37634863143662e-02 
6.14583333333333e-01 1.65190774888738e-01 1.41156030901637e-02 
6.35416666666667e-01 1.64902407159175e-01 1.48245406667482e-02 
6.56250000000000e-01 1.64608542029523e-01 1.53699936000692e-02 
6.77083333333333e-01 1.64313745214694e-01 1.52300941852514e-02 
6.97916666666667e-01 1.63972818697570e-01 1.45260292344407e-02 
7.18750000000000e-01 1.63713719367749e-01 1.43244403552043e-02 
7.39583333333333e-01 1.63451747388731e-01 1.49681039869033e-02 
7.60416666666667e-01 1.63177935886520e-01 1.55556734977010e-02 
7.81250000000000e-01 1.62896395179708e-01 1.59449968614966e-02 
8.02083333333333e-01 1.62598724027364e-01 1.59582347339101e-02 
8.22916666666667e-01 1.62279792436701e-01 1.58168703371048e-02 
8.43750000000000e-01 1.61968329971226e-01 1.60327325877407e-02 
8.64583333333333e-01 1.61627083912757e-01 1.65013927154929e-02 
8.85416666666667e-01 1.61254534739016e-01 1.69228403465280e-02 
9.06250000000000e-01 1.60852081368686e-01 1.70123310159695e-02 
9.27083333333333e-01 1.60410497345493e-01 1.68498782742038e-02 
9.47916666666667e-01 1.60002657717312e-01 1.69594881155460e-02 
9.68750000000000e-01 1.59579736341451e-01 1.73576829855784e-02 
9.89583333333333e-01 1.59141030346342e-01 1.77275820609066e-02 
1.01041666666667e+00 1.58688207244948e-01 1.80247507267533e-02 
1.03125000000000e+00 1.58221317190456e-01 1.81960236448295e-02 
1.05208333333333e+00 1.57737013666855e-01 1.83007320795326e-02 
1.07291666666667e+00 1.57257778235219e-01 1.85181813395957e-02 
1.09375000000000e+00 1.56765670641038e-01 1.88068152362992e-02 
1.11458333333333e+00 1.56261286465941e-01 1.90732941550096e-02 
1.13541666666667e+00 1.55744942143278e-01 1.92544305100401e-02 
1.15625000000000e+00 1.55208402873542e-01 1.93613173462937e-02 
1.17708333333333e+00 1.54676139810325e-01 1.95488222729377e-02 
1.19791666666667e+00 1.54131530929120e-01 1.98009109157725e-02 
1.21875000000000e+00 1.53576756386534e-01 2.00409028787908e-02 
1.23958333333333e+00 1.53014768534258e-01 2.02514190122794e-02 
1.26041666666667e+00 1.52442844800141e-01 2.04347508269633e-02 
1.28125000000000e+00 1.51869379255342e-01 2.06404731899018e-02 
1.30208333333333e+00 1.51288943530842e-01 2.08627234893915e-02 
1.32291666666667e+00 1.50703162204491e-01 2.10791720272118e-02 
1.34375000000000e+00 1.50113071476094e-01 2.12792877260387e-02 
1.36458333333333e+00 1.49516796122827e-01 2.14633630442175e-02 
1.38541666666667e+00 1.48919921766563e-01 2.16616844558096e-02 
1.40625000000000e+00 1.48318931781740e-01 2.18719526543936e-02 
1.42708333333333e+00 1.47713973627177e-01 2.20779339683994e-02 
1.44791666666667e+00 1.47105232258060e-01 2.22741488187375e-02 
1.46875000000000e+00 1.46492239337478e-01 2.24600799446859e-02 
1.48958333333333e+00 1.45877000013306e-01 2.26448738440919e-02 
1.51041666666667e+00 1.45258556622617e-01 2.28288478009238e-02 
1.53125000000000e+00 1.44637054492700e-01 2.30081521625829e-02 
1.55208333333333e+00 1.44012543432104e-01 2.31816838423975e-02 
1.57291666666667e+00 1.43385206144946e-01 2.33503520557645e-02 
1.59375000000000e+00 1.42755564217436e-01 2.35168095711396e-02 
1.61458333333333e+00 1.42123426712009e-01 2.36805798762318e-02 
1.63541666666667e+00 1.41488933285512e-01 2.38395886244011e-02 
1.65625000000000e+00 1.40852038414407e-01 2.39936323501447e-02 
1.67708333333333e+00 1.40213272310657e-01 2.41447965130404e-02 
1.69791666666667e+00 1.39572580463251e-01 2.42934952913548e-02 
1.71875000000000e+00 1.38930244554041e-01 2.44387309812939e-02 
1.73958333333333e+00 1.38286717641721e-01 2.45802902223241e-02 
1.76041666666667e+00 1.37642129391486e-01 2.47182059996293e-02 
1.78125000000000e+00 1.36996605663208e-01 2.48525625610290e-02 
1.80208333333333e+00 1.36350269056108e-01 2.49833704673701e-02 
1.82291666666667e+00 1.35703244492076e-01 2.51104871044473e-02 
1.84375000000000e+00 1.35055660534911e-01 2.52337427032062e-02 
1.86458333333333e+00 1.34407646101674e-01 2.53531149547872e-02 
1.88541666666667e+00 1.33759327585514e-01 2.54686969690087e-02 
1.90625000000000e+00 1.33110827053720e-01 2.55806313740498e-02 
1.92708333333333e+00 1.32461812364678e-01 2.56889879147124e-02 
1.94791666666667e+00 1.31812281199325e-01 2.57938346694442e-02 
1.96875000000000e+00 1.31162341317568e-01 2.58950945543161e-02 
1.98958333333333e+00 1.30512070623169e-01 2.59925733414601e-02 
2.01041666666667e+00 1.29861581489075e-01 2.60862428685098e-02 
2.03125000000000e+00 1.29210989273786e-01 2.61761891358317e-02 
2.05208333333333e+00 1.28560403049972e-01 2.62624253331333e-02 
2.07291666666667e+00 1.27909931497591e-01 2.63449749269067e-02 
2.09375000000000e+00 1.27259680594392e-01 2.64239095691644e-02 
2.11458333333333e+00 1.26609607484808e-01 2.64992169427652e-02 
2.13541666666667e+00 1.25959229768272e-01 2.65707530611618e-02 
2.15625000000000e+00 1.25308650754181e-01 2.66384997154475e-02 
2.17708333333333e+00 1.24657971806801e-01 2.67025099304139e-02 
2.19791666666667e+00 1.24007292301051e-01 2.67627923102772e-02 
2.21875000000000e+00 1.23356553228942e-01 2.68192171493228e-02 
2.23958333333333e+00 1.22705620028599e-01 2.68716047917845e-02 
2.26041666666667e+00 1.22054599328691e-01 2.69199035729190e-02 
2.28125000000000e+00 1.21403595494061e-01 2.69641526768579e-02 
2.30208333333333e+00 1.20752710957220e-01 2.70044209353066e-02 
2.32291666666667e+00 1.20102152109230e-01 2.70407817379392e-02 
2.34375000000000e+00 1.19452088268486e-01 2.70732786063758e-02 
2.36458333333333e+00 1.18802616557405e-01 2.71019480964568e-02 
2.38541666666667e+00 1.18153832378178e-01 2.71268601615142e-02 
2.40625000000000e+00 1.17505828293173e-01 2.71480616000741e-02 
2.42708333333333e+00 1.16860139626253e-01 2.71656462284171e-02 
2.44791666666667e+00 1.16217217379142e-01 2.71796967284876e-02 
2.46875000000000e+00 1.15577149089419e-01 2.71902717470135e-02 
2.48958333333333e+00 1.14940019657639e-01 2.71974394352960e-02 
2.51041666666667e+00 1.14305910951673e-01 2.72013374123881e-02 
2.53125000000000e+00 1.13672661274591e-01 2.72019882241546e-02 
2.55208333333333e+00 1.13040348654903e-01 2.71993462126783e-02 
2.57291666666667e+00 1.12409050271255e-01 2.71934588772388e-02 
2.59375000000000e+00 1.11778841224650e-01 2.71844078551828e-02 
2.61458333333333e+00 1.11149905065920e-01 2.71722718682455e-02 
2.63541666666667e+00 1.10522755791030e-01 2.71571348511844e-02 
2.65625000000000e+00 1.09897460713984e-01 2.71390743885950e-02 
2.67708333333333e+00 1.09274085661132e-01 2.71181422554588e-02 
2.69791666666667e+00 1.08652694571731e-01 2.70944113622452e-02 
2.71875000000000e+00 1.08033350363693e-01 2.70679835854452e-02 
2.73958333333333e+00 1.07416113468026e-01 2.70389732108377e-02 
2.76041666666667e+00 1.06801039202922e-01 2.70074678100675e-02 
2.78125000000000e+00 1.06188180974476e-01 2.69735184666109e-02 
2.80208333333333e+00 1.05577590941920e-01 2.69371680848316e-02 
2.82291666666667e+00 1.04968822542377e-01 2.68984792399266e-02 
2.84375000000000e+00 1.04361596925658e-01 2.68574728841560e-02 
2.86458333333333e+00 1.03755966970094e-01 2.68141270910506e-02 
2.88541666666667e+00 1.03151984347187e-01 2.67684371408736e-02 
2.90625000000000e+00 1.02549700204264e-01 2.67204634683898e-02 
2.92708333333333e+00 1.01949221722888e-01 2.66703077114544e-02 
2.94791666666667e+00 1.01350609382019e-01 2.66180315804811e-02 
2.96875000000000e+00 1.00753908409855e-01 2.65636591066996e-02 
2.98958333333333e+00 1.00159163191363e-01 2.65072335546131e-02 
3.01041666666667e+00 9.95664166388406e-02 2.64488447441307e-02 
3.03125000000000e+00 9.89755414296798e-02 2.63885996873596e-02 
3.05208333333333e+00 9.83865723118466e-02 2.63265894882342e-02 
3.07291666666667e+00 9.77995448521911e-02 2.62629391698566e-02 
3.09375000000000e+00 9.72144920876307e-02 2.61977329533085e-02 
3.11458333333333e+00 9.66314347887748e-02 2.61310212811160e-02 
3.13541666666667e+00 9.60503586407238e-02 2.60628579271518e-02 
3.15625000000000e+00 9.54712934448941e-02 2.59932766168678e-02 
3.17708333333333e+00 9.48942682819515e-02 2.59223149118590e-02 
3.19791666666667e+00 9.43193110924805e-02 2.58500318378439e-02 
3.21875000000000e+00 9.37468617090723e-02 2.57764840870813e-02 
3.23958333333333e+00 9.31775618154366e-02 2.57017170839209e-02 
3.26041666666667e+00 9.26114320301467e-02 2.56257488974016e-02 
3.28125000000000e+00 9.20484910957779e-02 2.55485317969263e-02 
3.30208333333333e+00 9.14887582086521e-02 2.54700724532417e-02 
3.32291666666667e+00 9.09312360742369e-02 2.53904898963621e-02 
3.34375000000000e+00 9.03752727939628e-02 2.53098119309734e-02 
3.36458333333333e+00 8.98208944734639e-02 2.52280293393678e-02 
3.38541666666667e+00 8.92681265412767e-02 2.51451704997115e-02 
3.40625000000000e+00 8.87169939000260e-02 2.50612639571295e-02 
3.42708333333333e+00 8.81676608287023e-02 2.49763504148979e-02 
3.44791666666667e+00 8.76201819914527e-02 2.48905169100562e-02 
3.46875000000000e+00 8.70745760889681e-02 2.48038518933655e-02 
3.48958333333333e+00 8.65308608327107e-02 2.47164115903546e-02 
3.51041666666667e+00 8.59890532933805e-02 2.46282304052937e-02 
3.53125000000000e+00 8.54491179171535e-02 2.45393423713017e-02 
3.55208333333333e+00 8.49110708127784e-02 2.44497549516124e-02 
3.57291666666667e+00 8.43749280295465e-02 2.43594832155493e-02 
3.59375000000000e+00 8.38407050106682e-02 2.42685608276770e-02 
3.61458333333333e+00 8.33083952574316e-02 2.41770350653403e-02 
3.63541666666667e+00 8.27779287209665e-02 2.40849889239358e-02 
3.65625000000000e+00 8.22493197408567e-02 2.39924904207980e-02 
3.67708333333333e+00 8.17225791913342e-02 2.38995479497404e-02 
3.69791666666667e+00 8.11977186166433e-02 2.38061538487352e-02 
3.71875000000000e+00 8.06746255933457e-02 2.37123370383197e-02 
3.73958333333333e+00 8.01531270773886e-02 2.36181141019337e-02 
3.76041666666667e+00 7.96332362563289e-02 2.35234627963419e-02 
3.78125000000000e+00 7.91149666184248e-02 2.34283860889823e-02 
3.80208333333333e+00 7.85983312708145e-02 2.33329372869325e-02 
3.82291666666667e+00 7.80832468426059e-02 2.32372958789385e-02 
3.84375000000000e+00 7.75696555700229e-02 2.31416979014874e-02 
3.86458333333333e+00 7.70575579462908e-02 2.30462824285279e-02 
3.88541666666667e+00 7.65469542805411e-02 2.29510943994255e-02 
3.90625000000000e+00 7.60378443139802e-02 2.28561484377154e-02 
3.92708333333333e+00 7.55303976323274e-02 2.27614705533525e-02 
3.94791666666667e+00 7.50246529965998e-02 2.26671581156887e-02 
3.96875000000000e+00 7.45206043803519e-02 2.25732795120842e-02 
3.98958333333333e+00 7.40182449338380e-02 2.24798492391662e-02 
4.01041666666667e+00 7.35175679358560e-02 2.23867440770987e-02 
4.03125000000000e+00 7.30188791907164e-02 2.22937826408256e-02 
4.05208333333333e+00 7.25221785347763e-02 2.22010368054758e-02 
4.07291666666667e+00 7.20274603279863e-02 2.21085764071638e-02 
4.09375000000000e+00 7.15347190480671e-02 2.20163978196578e-02 
4.11458333333333e+00 7.10438033823994e-02 2.19245338053670e-02 
4.13541666666667e+00 7.05541282517497e-02 2.18329983366166e-02 
4.15625000000000e+00 7.00656950567011e-02 2.17416368609238e-02 
4.17708333333333e+00 6.95785079582990e-02 2.16503686277135e-02 
4.19791666666667e+00 6.90925633190722e-02 2.15591352827657e-02 
4.21875000000000e+00 6.86081260376727e-02 2.14678877777897e-02 
4.23958333333333e+00 6.81256081017562e-02 2.13766517807631e-02 
4.26041666666667e+00 6.76450082009509e-02 2.12854910339310e-02 
4.28125000000000e+00 6.71663257691354e-02 2.11944138315281e-02 
4.30208333333333e+00 6.66895599405049e-02 2.11034148324949e-02 
4.32291666666667e+00 6.62147412668095e-02 2.10125069516602e-02 
4.34375000000000e+00 6.57418883873144e-02 2.09217840336240e-02 
4.36458333333333e+00 6.52709963015418e-02 2.08313389867049e-02 
4.38541666666667e+00 6.48020588255201e-02 2.07411976844514e-02 
4.40625000000000e+00 6.43350697724853e-02 2.06512827237631e-02 
4.42708333333333e+00 6.38699222613777e-02 2.05614676447222e-02 
4.44791666666667e+00 6.34065908083571e-02 2.04717059315774e-02 
4.46875000000000e+00 6.29450754650593e-02 2.03820171673725e-02 
4.48958333333333e+00 6.24853763724292e-02 2.02924072816928e-02 
4.51041666666667e+00 6.20274935081512e-02 2.02029176042594e-02 
4.53125000000000e+00 6.15713824746627e-02 2.01136747550220e-02 
4.55208333333333e+00 6.11170382068968e-02 2.00248034234760e-02 
4.57291666666667e+00 6.06644534407298e-02 1.99363500459436e-02 
4.59375000000000e+00 6.02136207646067e-02 1.98483103533968e-02 
4.61458333333333e+00 5.97645336657788e-02 1.97606303981767e-02 
4.63541666666667e+00 5.93171897741163e-02 1.96731407650595e-02 
4.65625000000000e+00 5.88715913746111e-02 1.95856278104238e-02 
4.67708333333333e+00 5.84277432349627e-02 1.94979914026839e-02 
4.69791666666667e+00 5.79856505238704e-02 1.94101994730348e-02 
4.71875000000000e+00 5.75452867250512e-02 1.93221601381101e-02 
4.73958333333333e+00 5.71066128091404e-02 1.92337470292771e-02 
4.76041666666667e+00 5.66696418086103e-02 1.91448924783026e-02 
4.78125000000000e+00 5.62343869303717e-02 1.90555991034400e-02 
4.80208333333333e+00 5.58008609805242e-02 1.89658766083476e-02 
4.82291666666667e+00 5.53691294268397e-02 1.88757285722381e-02 
4.84375000000000e+00 5.49392388602851e-02 1.87851927409701e-02 
4.86458333333333e+00 5.45111993362834e-02 1.86943212121629e-02 
4.88541666666667e+00 5.40850202649701e-02 1.86031426627128e-02 
4.90625000000000e+00 5.36607107095444e-02 1.85116608402510e-02 
4.92708333333333e+00 5.32383501519189e-02 1.84198831387366e-02 
4.94791666666667e+00 5.28179637652802e-02 1.83278561828455e-02 
4.96875000000000e+00 5.23995580621838e-02 1.82356063742585e-02 
4.98958333333333e+00 5.19831394492272e-02 1.81431436653717e-02 
5.01041666666667e+00 5.15687139852323e-02 1.80505350015015e-02 
5.03125000000000e+00 5.11558057887347e-02 1.79579419143086e-02 
5.05208333333333e+00 5.07444207639293e-02 1.78653427730799e-02 
5.07291666666667e+00 5.03345656933861e-02 1.77727232835171e-02 
5.09375000000000e+00 4.99262471500193e-02 1.76800922464448e-02 
5.11458333333333e+00 4.95195340518558e-02 1.75874670896434e-02 
5.13541666666667e+00 4.91146800257619e-02 1.74948751444825e-02 
5.15625000000000e+00 4.87116859539197e-02 1.74023929676778e-02 
5.17708333333333e+00 4.83105517425596e-02 1.73100448782519e-02 
5.19791666666667e+00 4.79112771260436e-02 1.72178291514138e-02 
5.21875000000000e+00 4.75138170032106e-02 1.71257821566755e-02 
5.23958333333333e+00 4.71181028677550e-02 1.70339861967995e-02 
5.26041666666667e+00 4.67241321412264e-02 1.69424760883176e-02 
5.28125000000000e+00 4.63319022658382e-02 1.68512509430431e-02 
5.30208333333333e+00 4.59414106711919e-02 1.67603018026504e-02 
5.32291666666667e+00 4.55525223127777e-02 1.66696313992036e-02 
5.34375000000000e+00 4.51651484879335e-02 1.65792311886985e-02 
5.36458333333333e+00 4.47792895149388e-02 1.64890892232899e-02 
5.38541666666667e+00 4.43949457767269e-02 1.63992063990925e-02 
5.40625000000000e+00 4.40121174909899e-02 1.63095448557833e-02 
5.42708333333333e+00 4.36308092811538e-02 1.62200418467358e-02 
5.44791666666667e+00 4.32510254603603e-02 1.61306941244017e-02 
5.46875000000000e+00 4.28727684882207e-02 1.60415193243882e-02 
5.48958333333333e+00 4.24960405892151e-02 1.59525172360372e-02 
5.51041666666667e+00 4.21208439440297e-02 1.58636698067270e-02 
5.53125000000000e+00 4.17474985672301e-02 1.57748666025423e-02 
5.55208333333333e+00 4.13760065916205e-02 1.56860712983049e-02 
5.57291666666667e+00 4.10063710156030e-02 1.55972719142953e-02 
5.59375000000000e+00 4.06385945406879e-02 1.55084798293434e-02 
5.61458333333333e+00 4.02726591002623e-02 1.54197317375223e-02 
5.63541666666667e+00 3.99084844124325e-02 1.53311458515949e-02 
5.65625000000000e+00 3.95460690822225e-02 1.52428449854411e-02 
5.67708333333333e+00 3.91854089823210e-02 1.51548784251813e-02 
5.69791666666667e+00 3.88265000365600e-02 1.50672479315075e-02 
5.71875000000000e+00 3.84693780324514e-02 1.49798670447314e-02 
5.73958333333333e+00 3.81141020611590e-02 1.48925245874345e-02 
5.76041666666667e+00 3.77606768091021e-02 1.48050712772994e-02 
5.78125000000000e+00 3.74091084190768e-02 1.47174809428535e-02 
5.80208333333333e+00 3.70594027327013e-02 1.46297222714462e-02 
5.82291666666667e+00 3.67115116558577e-02 1.45417996331105e-02 
5.84375000000000e+00 3.63654055581446e-02 1.44538214981837e-02 
5.86458333333333e+00 3.60210885595427e-02 1.43658599355649e-02 
5.88541666666667e+00 3.56785640500993e-02 1.42779167584058e-02 
5.90625000000000e+00 3.53378353859930e-02 1.41900275257377e-02 
5.92708333333333e+00 3.49983750101652e-02 1.41023589456343e-02 
5.94791666666667e+00 3.46600565590154e-02 1.40149412628052e-02 
5.96875000000000e+00 3.43228859060192e-02 1.39277801928391e-02 
5.98958333333333e+00 3.39868685135842e-02 1.38408854499665e-02 
6.01041666666667e+00 3.36520096338492e-02 1.37541049802384e-02 
6.03125000000000e+00 3.33183310144835e-02 1.36671408703442e-02 
6.05208333333333e+00 3.29858515707580e-02 1.35798729044824e-02 
6.07291666666667e+00 3.26545899704450e-02 1.34923380943705e-02 
6.09375000000000e+00 3.23245641855740e-02 1.34045777327608e-02 
6.11458333333333e+00 3.19958735126898e-02 1.33166909137320e-02 
6.13541666666667e+00 3.16688572404893e-02 1.32287625234642e-02 
6.15625000000000e+00 3.13435211536937e-02 1.31408540536012e-02 
6.17708333333333e+00 3.10198715751130e-02 1.30529578933327e-02 
6.19791666666667e+00 3.06979145422749e-02 1.29650498447870e-02 
6.21875000000000e+00 3.03776599085559e-02 1.28770284287800e-02 
6.23958333333333e+00 3.00591221628690e-02 1.27888170260630e-02 
6.26041666666667e+00 2.97423125150833e-02 1.27004473677921e-02 
6.28125000000000e+00 2.94272404602719e-02 1.26119648165818e-02 
6.30208333333333e+00 2.91139150604494e-02 1.25234035949938e-02 
6.32291666666667e+00 2.88023436456982e-02 1.24347624241223e-02 
6.34375000000000e+00 2.84925351211337e-02 1.23459630652702e-02 
6.36458333333333e+00 2.81845013204180e-02 1.22569540172820e-02 
6.38541666666667e+00 2.78782540325382e-02 1.21677451755501e-02 
6.40625000000000e+00 2.75738045743384e-02 1.20782004725494e-02 
6.42708333333333e+00 2.72711815953839e-02 1.19880440996166e-02 
6.44791666666667e+00 2.69704128747940e-02 1.18971716532241e-02 
6.46875000000000e+00 2.66715225000289e-02 1.18056219757454e-02 
