Energy(eV)           EEDF(eV^-(3/2))      Anisotropy(eV^-(3/2))
7.23379629629630e-03 7.46871633824701e-01 8.15478858377977e-02 
2.17013888888889e-02 7.38320011644831e-01 5.52393927671725e-02 
3.61689814814815e-02 7.27136935448306e-01 8.66415950337393e-02 
5.06365740740741e-02 7.14804306744435e-01 1.08441698592816e-01 
6.51041666666667e-02 7.02097909694625e-01 1.24411177729668e-01 
7.95717592592593e-02 6.89499932610407e-01 1.36255904856638e-01 
9.40393518518519e-02 6.77174789542395e-01 1.43730692399084e-01 
1.08506944444444e-01 6.65588085035726e-01 1.47656347096946e-01 
1.22974537037037e-01 6.54663751841037e-01 1.49474959016716e-01 
1.37442129629630e-01 6.44229033226122e-01 1.50782028776837e-01 
1.51909722222222e-01 6.34136054109787e-01 1.52134600442503e-01 
1.66377314814815e-01 6.24588418080299e-01 1.52425562716458e-01 
1.80844907407407e-01 6.15736848048732e-01 1.51594274751390e-01 
1.95312500000000e-01 6.07400098281759e-01 1.50729888512119e-01 
2.09780092592593e-01 5.99519685935944e-01 1.49941489268893e-01 
2.24247685185185e-01 5.91937177707974e-01 1.48990030789714e-01 
2.38715277777778e-01 5.84657412606113e-01 1.48003834259661e-01 
2.53182870370370e-01 5.77671325731794e-01 1.48467901825784e-01 
2.67650462962963e-01 5.70895635341941e-01 1.50855845729889e-01 
2.82118055555556e-01 5.64313974227215e-01 1.52353007845922e-01 
2.96585648148148e-01 5.58072029902047e-01 1.51230648840336e-01 
3.11053240740741e-01 5.52182262760375e-01 1.48455943785958e-01 
3.25520833333333e-01 5.46558219421180e-01 1.44706202715273e-01 
3.39988425925926e-01 5.41137235599669e-01 1.39996465713123e-01 
3.54456018518519e-01 5.36123134498193e-01 1.35042704735232e-01 
3.68923611111111e-01 5.31373073810774e-01 1.31330334690766e-01 
3.83391203703704e-01 5.26792058766686e-01 1.29619872841395e-01 
3.97858796296296e-01 5.22302211419356e-01 1.28294378246828e-01 
4.12326388888889e-01 5.17944268925775e-01 1.25706622181869e-01 
4.26793981481482e-01 5.13743352009361e-01 1.22981265255605e-01 
4.41261574074074e-01 5.09668514966859e-01 1.19569289777197e-01 
4.55729166666667e-01 5.05536424503827e-01 1.14831251067266e-01 
4.70196759259259e-01 5.01775840871331e-01 1.10429912227697e-01 
4.84664351851852e-01 4.98268552211882e-01 1.07433811127234e-01 
4.99131944444445e-01 4.94884291787753e-01 1.06110869509437e-01 
5.13599537037037e-01 4.91536081135695e-01 1.06122528907614e-01 
5.28067129629630e-01 4.88206778729928e-01 1.05639850339845e-01 
5.42534722222222e-01 4.84934386750274e-01 1.04617526470306e-01 
5.57002314814815e-01 4.81713495953679e-01 1.02730987464488e-01 
5.71469907407407e-01 4.78440978681290e-01 9.92450912330011e-02 
5.85937500000000e-01 4.75275488669853e-01 9.57326253587251e-02 
6.00405092592593e-01 4.72421852042227e-01 9.40451352611575e-02 
6.14872685185185e-01 4.69613335002812e-01 9.41029458400593e-02 
6.29340277777778e-01 4.66837657349301e-01 9.41683684118521e-02 
6.43807870370370e-01 4.64119773849973e-01 9.36714847729156e-02 
6.58275462962963e-01 4.61467132208900e-01 9.31964312033829e-02 
6.72743055555556e-01 4.58870020824897e-01 9.27379629892715e-02 
6.87210648148148e-01 4.56336244784881e-01 9.09964747612886e-02 
7.01678240740741e-01 4.53653788029919e-01 8.83875182662963e-02 
7.16145833333333e-01 4.51320153015424e-01 8.70595137709539e-02 
7.30613425925926e-01 4.49010456326433e-01 8.74817485647610e-02 
7.45081018518519e-01 4.46696324812868e-01 8.77333808475774e-02 
7.59548611111111e-01 4.44397150693606e-01 8.77096956854771e-02 
7.74016203703704e-01 4.42108092169122e-01 8.78411302995281e-02 
7.88483796296296e-01 4.39825863434354e-01 8.74016468572354e-02 
8.02951388888889e-01 4.37440921730571e-01 8.59541892632529e-02 
8.17418981481482e-01 4.35105120215191e-01 8.46779575520536e-02 
8.31886574074074e-01 4.32870396179936e-01 8.46292592945268e-02 
8.46354166666667e-01 4.30583566064071e-01 8.53495470231039e-02 
8.60821759259259e-01 4.28237466327432e-01 8.61464651487229e-02 
8.75289351851852e-01 4.25833777100305e-01 8.68670127397910e-02 
8.89756944444445e-01 4.23373721768022e-01 8.75478563712708e-02 
9.04224537037037e-01 4.20857127908109e-01 8.76772590529784e-02 
9.18692129629630e-01 4.18181179531242e-01 8.72193171122951e-02 
9.33159722222222e-01 4.15643356233932e-01 8.72873432612531e-02 
9.47627314814815e-01 4.13117360858841e-01 8.82091342842184e-02 
9.62094907407408e-01 4.10555212391428e-01 8.94041643944168e-02 
9.76562500000000e-01 4.07953700961531e-01 9.06356623604378e-02 
9.91030092592593e-01 4.05313735124990e-01 9.18532160072216e-02 
1.00549768518519e+00 4.02635004573840e-01 9.30836748133453e-02 
1.01996527777778e+00 3.99900883787076e-01 9.40950953934984e-02 
1.03443287037037e+00 3.97048870510263e-01 9.47400113406558e-02 
1.04890046296296e+00 3.94195785409236e-01 9.55342659074727e-02 
1.06336805555556e+00 3.91337546448681e-01 9.67505972500619e-02 
1.07783564814815e+00 3.88420442001681e-01 9.80908543335033e-02 
1.09230324074074e+00 3.85444898345712e-01 9.94014583161377e-02 
1.10677083333333e+00 3.82410989986828e-01 1.00691640861248e-01 
1.12123842592593e+00 3.79319799898509e-01 1.01971890856308e-01 
1.13570601851852e+00 3.76170710478823e-01 1.03110528044923e-01 
1.15017361111111e+00 3.72920642302503e-01 1.04078587702394e-01 
1.16464120370370e+00 3.69664590935705e-01 1.05183240364177e-01 
1.17910879629630e+00 3.66357565798425e-01 1.06439677078132e-01 
1.19357638888889e+00 3.62989950124123e-01 1.07691193209226e-01 
1.20804398148148e+00 3.59561067920928e-01 1.08914530774538e-01 
1.22251157407407e+00 3.56071111235476e-01 1.10108326664349e-01 
1.23697916666667e+00 3.52519542250891e-01 1.11211500377764e-01 
1.25144675925926e+00 3.48886367102868e-01 1.12205979635754e-01 
1.26591435185185e+00 3.45217666684306e-01 1.13200342068691e-01 
1.28038194444444e+00 3.41490658059875e-01 1.14176477245120e-01 
1.29484953703704e+00 3.37705408914455e-01 1.15062271110872e-01 
1.30931712962963e+00 3.33863239982631e-01 1.15842804490174e-01 
1.32378472222222e+00 3.29965697871723e-01 1.16507236291303e-01 
1.33825231481481e+00 3.26015396058649e-01 1.17034298435370e-01 
1.35271990740741e+00 3.22009609328280e-01 1.17403382505837e-01 
1.36718750000000e+00 3.17959408633326e-01 1.17637021320421e-01 
1.38165509259259e+00 3.13873541943736e-01 1.17756186862931e-01 
1.39612268518519e+00 3.09748240270292e-01 1.17740036838400e-01 
1.41059027777778e+00 3.05587984572048e-01 1.17574237965496e-01 
1.42505787037037e+00 3.01397097073325e-01 1.17261082174444e-01 
1.43952546296296e+00 2.97179566726081e-01 1.16797344911488e-01 
1.45399305555556e+00 2.92937631178049e-01 1.16187072936574e-01 
1.46846064814815e+00 2.88681040455475e-01 1.15454279502068e-01 
1.48292824074074e+00 2.84414593188149e-01 1.14619887003044e-01 
1.49739583333333e+00 2.80141189649135e-01 1.13689628621797e-01 
1.51186342592593e+00 2.75869105987152e-01 1.12672304179297e-01 
1.52633101851852e+00 2.71612123862079e-01 1.11581180037549e-01 
1.54079861111111e+00 2.67374106799239e-01 1.10426040838667e-01 
1.55526620370370e+00 2.63158912240108e-01 1.09221067441490e-01 
1.56973379629630e+00 2.58971943434806e-01 1.07985936617045e-01 
1.58420138888889e+00 2.54817210296239e-01 1.06730563863298e-01 
1.59866898148148e+00 2.50696673229219e-01 1.05459403852445e-01 
1.61313657407407e+00 2.46617689974759e-01 1.04175153504160e-01 
1.62760416666667e+00 2.42586133708925e-01 1.02879485990352e-01 
1.64207175925926e+00 2.38605806333943e-01 1.01571988623243e-01 
1.65653935185185e+00 2.34676562958277e-01 1.00252327753764e-01 
1.67100694444444e+00 2.30799854387165e-01 9.89212973494961e-02 
1.68547453703704e+00 2.26977460280417e-01 9.75739455434242e-02 
1.69994212962963e+00 2.23207223132542e-01 9.62050723455833e-02 
1.71440972222222e+00 2.19496955393643e-01 9.48090052641154e-02 
1.72887731481482e+00 2.15852066295006e-01 9.33790889509421e-02 
1.74334490740741e+00 2.12273048223989e-01 9.19122661868915e-02 
1.75781250000000e+00 2.08759724202458e-01 9.04105996609954e-02 
1.77228009259259e+00 2.05312162725611e-01 8.88738251798581e-02 
1.78674768518519e+00 2.01931206561609e-01 8.73016729232633e-02 
1.80121527777778e+00 1.98617038813657e-01 8.57014156729299e-02 
1.81568287037037e+00 1.95369932296577e-01 8.40818200492684e-02 
1.83015046296296e+00 1.92191303279017e-01 8.24522805057656e-02 
1.84461805555556e+00 1.89080537713996e-01 8.08258123256443e-02 
1.85908564814815e+00 1.86038136412799e-01 7.92171826117312e-02 
1.87355324074074e+00 1.83063842149770e-01 7.76384330800906e-02 
1.88802083333333e+00 1.80156848573553e-01 7.60992864055337e-02 
1.90248842592593e+00 1.77316890735747e-01 7.46080183617391e-02 
1.91695601851852e+00 1.74548642074092e-01 7.31633972349193e-02 
1.93142361111111e+00 1.71853918631063e-01 7.17653555559046e-02 
1.94589120370370e+00 1.69232119835383e-01 7.04126916459584e-02 
1.96035879629630e+00 1.66680369654800e-01 6.90995110426161e-02 
1.97482638888889e+00 1.64199017639297e-01 6.78179468070286e-02 
1.98929398148148e+00 1.61785103386310e-01 6.65626749092661e-02 
2.00376157407407e+00 1.59438635915021e-01 6.53298421753258e-02 
2.01822916666667e+00 1.57157806527521e-01 6.41143917893068e-02 
2.03269675925926e+00 1.54939640760662e-01 6.29157564649634e-02 
2.04716435185185e+00 1.52784788654305e-01 6.17352253992235e-02 
2.06163194444444e+00 1.50688424185274e-01 6.05740411909758e-02 
2.07609953703704e+00 1.48650809831465e-01 5.94339248916835e-02 
2.09056712962963e+00 1.46667689619908e-01 5.83176125880200e-02 
2.10503472222222e+00 1.44737788012948e-01 5.72251627968366e-02 
2.11950231481481e+00 1.42851616269401e-01 5.61589313268461e-02 
2.13396990740741e+00 1.41005376544572e-01 5.51183339177194e-02 
2.14843750000000e+00 1.39199404072565e-01 5.41022417664710e-02 
2.16290509259259e+00 1.37431277581747e-01 5.31069139280043e-02 
2.17737268518519e+00 1.35700835244003e-01 5.21316831429723e-02 
2.19184027777778e+00 1.34008856418696e-01 5.11779850905115e-02 
2.20630787037037e+00 1.32353534107662e-01 5.02442275240343e-02 
2.22077546296296e+00 1.30731759790957e-01 4.93307520046482e-02 
2.23524305555556e+00 1.29143614015362e-01 4.84410812191294e-02 
2.24971064814815e+00 1.27589079315202e-01 4.75780174685360e-02 
2.26417824074074e+00 1.26067099260556e-01 4.67433609915578e-02 
2.27864583333333e+00 1.24576663181055e-01 4.59423504356015e-02 
2.29311342592593e+00 1.23117358863490e-01 4.51765903113602e-02 
2.30758101851852e+00 1.21685861928492e-01 4.44439701070337e-02 
2.32204861111111e+00 1.20281837799681e-01 4.37444093893062e-02 
2.33651620370370e+00 1.18903221856335e-01 4.30769519425074e-02 
2.35098379629630e+00 1.17547435703259e-01 4.24375693488573e-02 
2.36545138888889e+00 1.16213313296197e-01 4.18261966194836e-02 
2.37991898148148e+00 1.14899810919974e-01 4.12426727322421e-02 
2.39438657407407e+00 1.13605450226480e-01 4.06825297145585e-02 
2.40885416666667e+00 1.12329410537248e-01 4.01431915258893e-02 
2.42332175925926e+00 1.11072983961631e-01 3.96247171857340e-02 
2.43778935185185e+00 1.09835431539304e-01 3.91260771704251e-02 
2.45225694444444e+00 1.08616388704472e-01 3.86468068534679e-02 
2.46672453703704e+00 1.07416263131282e-01 3.81900202623769e-02 
2.48119212962963e+00 1.06234891997589e-01 3.77572403697758e-02 
2.49565972222222e+00 1.05070885489398e-01 3.73481636791214e-02 
2.51012731481482e+00 1.03923752027380e-01 3.69615373995547e-02 
2.52459490740741e+00 1.02790420801294e-01 3.65925721830374e-02 
2.53906250000000e+00 1.01669968831398e-01 3.62368473040315e-02 
2.55353009259259e+00 1.00561729453440e-01 3.58944967501727e-02 
2.56799768518519e+00 9.94650570794608e-02 3.55649100544086e-02 
2.58246527777778e+00 9.83789888783028e-02 3.52445452840194e-02 
2.59693287037037e+00 9.73023838029054e-02 3.49302299619574e-02 
2.61140046296296e+00 9.62356913275383e-02 3.46203693695811e-02 
2.62586805555556e+00 9.51778286744733e-02 3.43118025054479e-02 
2.64033564814815e+00 9.41289146206279e-02 3.40022539346372e-02 
2.65480324074074e+00 9.30895532124207e-02 3.36927200157995e-02 
2.66927083333333e+00 9.20597127021503e-02 3.33833801313171e-02 
2.68373842592593e+00 9.10395033834235e-02 3.30745643701951e-02 
2.69820601851852e+00 9.00293645573593e-02 3.27689895841491e-02 
2.71267361111111e+00 8.90297644016252e-02 3.24692474397182e-02 
2.72714120370370e+00 8.80401511785014e-02 3.21760373816884e-02 
2.74160879629630e+00 8.70604911708218e-02 3.18906899560069e-02 
2.75607638888889e+00 8.60908419841119e-02 3.16143044690434e-02 
2.77054398148148e+00 8.51301994908031e-02 3.13448558273133e-02 
2.78501157407407e+00 8.41781930460840e-02 3.10806540431887e-02 
2.79947916666667e+00 8.32347852368373e-02 3.08209547178497e-02 
2.81394675925926e+00 8.22972567807210e-02 3.05637970591559e-02 
2.82841435185185e+00 8.13649258838654e-02 3.03069656106884e-02 
2.84288194444444e+00 8.04378743954444e-02 3.00496980556958e-02 
2.85734953703704e+00 7.95163125074981e-02 2.97906066371231e-02 
2.87181712962963e+00 7.85997586235203e-02 2.95282702807659e-02 
2.88628472222222e+00 7.76887456160393e-02 2.92635245456192e-02 
2.90075231481482e+00 7.67836886393006e-02 2.89976506893304e-02 
2.91521990740741e+00 7.58844018140075e-02 2.87309977110973e-02 
2.92968750000000e+00 7.49913608208793e-02 2.84649505603660e-02 
2.94415509259259e+00 7.41046343253547e-02 2.82010299019589e-02 
2.95862268518519e+00 7.32241158259231e-02 2.79393875197714e-02 
2.97309027777778e+00 7.23496181142133e-02 2.76800577374620e-02 
2.98755787037037e+00 7.14812556011218e-02 2.74231342333537e-02 
3.00202546296296e+00 7.06181206661282e-02 2.71682030398709e-02 
3.01649305555556e+00 6.97599838647534e-02 2.69148195789095e-02 
3.03096064814815e+00 6.89070641986638e-02 2.66632389529763e-02 
3.04542824074074e+00 6.80591894553519e-02 2.64126736607347e-02 
3.05989583333333e+00 6.72161575141177e-02 2.61615467749355e-02 
3.07436342592593e+00 6.63779256915560e-02 2.59094518176004e-02 
3.08883101851852e+00 6.55447031539752e-02 2.56559930616338e-02 
3.10329861111111e+00 6.47165800493434e-02 2.53993529603853e-02 
3.11776620370370e+00 6.38937930517776e-02 2.51376327451578e-02 
3.13223379629630e+00 6.30767949216250e-02 2.48714139486613e-02 
3.14670138888889e+00 6.22657537927723e-02 2.46031815695988e-02 
3.16116898148148e+00 6.14606737484687e-02 2.43344434326917e-02 
3.17563657407407e+00 6.06617478200996e-02 2.40657054443841e-02 
3.19010416666667e+00 5.98689918125085e-02 2.37970240911099e-02 
3.20457175925926e+00 5.90820734695979e-02 2.35286760246157e-02 
3.21903935185185e+00 5.83015643497273e-02 2.32615573397939e-02 
3.23350694444444e+00 5.75275408836819e-02 2.29956074975687e-02 
3.24797453703704e+00 5.67599517450933e-02 2.27285172442919e-02 
3.26244212962963e+00 5.59988555387443e-02 2.24580688706881e-02 
3.27690972222222e+00 5.52444388112538e-02 2.21837355189851e-02 
3.29137731481482e+00 5.44968200822692e-02 2.19056074363639e-02 
3.30584490740741e+00 5.37561958909101e-02 2.16239071075888e-02 
3.32031250000000e+00 5.30223769717742e-02 2.13389284498331e-02 
3.33478009259259e+00 5.22955649246348e-02 2.10499853811556e-02 
3.34924768518519e+00 5.15759348054557e-02 2.07563414016880e-02 
3.36371527777778e+00 5.08637386442060e-02 2.04580545783425e-02 
3.37818287037037e+00 5.01592438468570e-02 2.01554805032513e-02 
3.39265046296296e+00 4.94626341996051e-02 1.98486585815185e-02 
3.40711805555556e+00 4.87741121887124e-02 1.95384447513940e-02 
3.42158564814815e+00 4.80937987179277e-02 1.92267928756184e-02 
3.43605324074074e+00 4.74217572343751e-02 1.89146460149535e-02 
3.45052083333333e+00 4.67580522280625e-02 1.86019413647540e-02 
3.46498842592593e+00 4.61027787488046e-02 1.82887229940853e-02 
3.47945601851852e+00 4.54560514180859e-02 1.79750802781728e-02 
3.49392361111111e+00 4.48179405293678e-02 1.76610876034381e-02 
3.50839120370370e+00 4.41885467082961e-02 1.73468857282790e-02 
3.52285879629630e+00 4.35679867002033e-02 1.70326846149688e-02 
3.53732638888889e+00 4.29563615335453e-02 1.67184024369650e-02 
3.55179398148148e+00 4.23537594970561e-02 1.64035958868683e-02 
3.56626157407407e+00 4.17601720898884e-02 1.60893923376902e-02 
3.58072916666667e+00 4.11760787106367e-02 1.57789031793973e-02 
3.59519675925926e+00 4.06016641104073e-02 1.54752517968957e-02 
3.60966435185185e+00 4.00369998809612e-02 1.51808441017956e-02 
3.62413194444445e+00 3.94820996399051e-02 1.48960752462090e-02 
3.63859953703704e+00 3.89360824965376e-02 1.46187994910723e-02 
3.65306712962963e+00 3.83996713746178e-02 1.43465329178952e-02 
3.66753472222222e+00 3.78727150597793e-02 1.40789180129947e-02 
3.68200231481482e+00 3.73550590812619e-02 1.38158338273648e-02 
3.69646990740741e+00 3.68465519207979e-02 1.35572272886747e-02 
3.71093750000000e+00 3.63470577711374e-02 1.33033630287370e-02 
3.72540509259259e+00 3.58563753503545e-02 1.30546070629726e-02 
3.73987268518519e+00 3.53742750691019e-02 1.28106763438704e-02 
3.75434027777778e+00 3.49006100754066e-02 1.25706322574333e-02 
3.76880787037037e+00 3.44352800823052e-02 1.23337496627329e-02 
3.78327546296296e+00 3.39781969877424e-02 1.20998468970213e-02 
3.79774305555556e+00 3.35292577636732e-02 1.18689738103719e-02 
3.81221064814815e+00 3.30883327706541e-02 1.16413440592538e-02 
3.82667824074074e+00 3.26553683988616e-02 1.14171749785536e-02 
3.84114583333333e+00 3.22302443503506e-02 1.11965033067415e-02 
3.85561342592593e+00 3.18128462464027e-02 1.09792255350448e-02 
3.87008101851852e+00 3.14030702301936e-02 1.07652518466896e-02 
3.88454861111111e+00 3.10008211864932e-02 1.05545028703643e-02 
3.89901620370370e+00 3.06058671802268e-02 1.03471164585432e-02 
3.91348379629630e+00 3.02181652956282e-02 1.01435457557626e-02 
3.92795138888889e+00 2.98376596378317e-02 9.94423652485930e-03 
3.94241898148148e+00 2.94642034098619e-02 9.74922499995827e-03 
3.95688657407407e+00 2.90976520835101e-02 9.55853535182557e-03 
3.97135416666667e+00 2.87378867321923e-02 9.37231950941762e-03 
3.98582175925926e+00 2.83850600618712e-02 9.19047010444470e-03 
4.00028935185185e+00 2.80390050149569e-02 9.01298652382038e-03 
4.01475694444444e+00 2.76995720512781e-02 8.83996753458261e-03 
4.02922453703704e+00 2.73666029801752e-02 8.67151553845146e-03 
4.04369212962963e+00 2.70399209877670e-02 8.50759230601607e-03 
4.05815972222222e+00 2.67193664068650e-02 8.34810243603791e-03 
4.07262731481481e+00 2.64050267898162e-02 8.19286495789909e-03 
4.08709490740741e+00 2.60967324278542e-02 8.04187413061251e-03 
4.10156250000000e+00 2.57943118068996e-02 7.89508439923285e-03 
4.11603009259259e+00 2.54975032870266e-02 7.75230784320348e-03 
4.13049768518519e+00 2.52060982348077e-02 7.61325270827543e-03 
4.14496527777778e+00 2.49199676571558e-02 7.47764955907148e-03 
4.15943287037037e+00 2.46389826376489e-02 7.34530915253064e-03 
4.17390046296296e+00 2.43630198875147e-02 7.21617404930658e-03 
4.18836805555556e+00 2.40919540914822e-02 7.09026466000327e-03 
4.20283564814815e+00 2.38256589467363e-02 6.96761639261434e-03 
4.21730324074074e+00 2.35641002587741e-02 6.84828017877252e-03 
4.23177083333333e+00 2.33071840916247e-02 6.73229771483148e-03 
4.24623842592593e+00 2.30547647078244e-02 6.61962014745534e-03 
4.26070601851852e+00 2.28067017319141e-02 6.51023037617697e-03 
4.27517361111111e+00 2.25628643014254e-02 6.40418019188354e-03 
4.28964120370370e+00 2.23231197081923e-02 6.30145850651956e-03 
4.30410879629630e+00 2.20873385122083e-02 6.20198552470014e-03 
4.31857638888889e+00 2.18553957417694e-02 6.10568330633899e-03 
4.33304398148148e+00 2.16271687184966e-02 6.01248759441491e-03 
4.34751157407407e+00 2.14025396343104e-02 5.92227799399125e-03 
4.36197916666667e+00 2.11813945952547e-02 5.83486719919331e-03 
4.37644675925926e+00 2.09636273045697e-02 5.75012616791265e-03 
4.39091435185185e+00 2.07491342453199e-02 5.66799191578848e-03 
4.40538194444444e+00 2.05378139822600e-02 5.58836556609493e-03 
4.41984953703704e+00 2.03295603533850e-02 5.51111901783693e-03 
4.43431712962963e+00 2.01243328731199e-02 5.43615459519196e-03 
4.44878472222222e+00 1.99221082827038e-02 5.36341490073231e-03 
4.46325231481482e+00 1.97227971381343e-02 5.29285906039924e-03 
4.47771990740741e+00 1.95263123655862e-02 5.22444022228039e-03 
4.49218750000000e+00 1.93325686360284e-02 5.15811333353402e-03 
