Energy(eV)           EEDF(eV^-(3/2))      Anisotropy(eV^-(3/2))
7.23379629629630e-03 2.17918403598297e-01 -2.13026845467702e-03 
2.17013888888889e-02 2.17944519748301e-01 -9.57201932845527e-04 
3.61689814814815e-02 2.17967590067702e-01 -3.12118640946218e-04 
5.06365740740741e-02 2.17988435611613e-01 3.44627573884292e-05 
6.51041666666667e-02 2.18007105045767e-01 2.89067298692982e-04 
7.95717592592593e-02 2.18023292584161e-01 5.00157462302466e-04 
9.40393518518519e-02 2.18036992837300e-01 6.93055266160676e-04 
1.08506944444444e-01 2.18048056187258e-01 8.73128981067758e-04 
1.22974537037037e-01 2.18056409644916e-01 1.04866910516721e-03 
1.37442129629630e-01 2.18061832082429e-01 1.76048480440942e-03 
1.51909722222222e-01 2.18049844374200e-01 2.98606632596638e-03 
1.66377314814815e-01 2.18018557088504e-01 3.66299695947064e-03 
1.80844907407407e-01 2.17982452777114e-01 3.85644914227334e-03 
1.95312500000000e-01 2.17939986938162e-01 4.23203727132822e-03 
2.09780092592593e-01 2.17886373818416e-01 4.62339512703444e-03 
2.24247685185185e-01 2.17825443107709e-01 4.77278905033146e-03 
2.38715277777778e-01 2.17761327286309e-01 4.81389329808119e-03 
2.53182870370370e-01 2.17693408806696e-01 6.15287295278826e-03 
2.67650462962963e-01 2.17574314771198e-01 9.16102279245205e-03 
2.82118055555556e-01 2.17384802392155e-01 1.12642252855946e-02 
2.96585648148148e-01 2.17172623217110e-01 1.15850189195872e-02 
3.11053240740741e-01 2.16957493827053e-01 1.18746083841147e-02 
3.25520833333333e-01 2.16721805061439e-01 1.24041601296909e-02 
3.39988425925926e-01 2.16455840992513e-01 1.22720293011626e-02 
3.54456018518519e-01 2.16212021013819e-01 1.19145169919677e-02 
3.68923611111111e-01 2.15968396403885e-01 1.25791861352074e-02 
3.83391203703704e-01 2.15686734377382e-01 1.49658991535338e-02 
3.97858796296296e-01 2.15322432776624e-01 1.74883003016322e-02 
4.12326388888889e-01 2.14910235046833e-01 1.86145386143769e-02 
4.26793981481482e-01 2.14479778642011e-01 1.94259076306280e-02 
4.41261574074074e-01 2.14016532468581e-01 1.93994348745162e-02 
4.55729166666667e-01 2.13485681439188e-01 1.78839823711305e-02 
4.70196759259259e-01 2.13057532328645e-01 1.64482483196198e-02 
4.84664351851852e-01 2.12671676657921e-01 1.61261513211688e-02 
4.99131944444445e-01 2.12280446321313e-01 1.72207164733469e-02 
5.13599537037037e-01 2.11829469711517e-01 1.94327280368534e-02 
5.28067129629630e-01 2.11317764560901e-01 2.10320938425367e-02 
5.42534722222222e-01 2.10778703232111e-01 2.19884284930868e-02 
5.57002314814815e-01 2.10211545849505e-01 2.19633700284439e-02 
5.71469907407407e-01 2.09593748111914e-01 2.02430646044154e-02 
5.85937500000000e-01 2.09025862374552e-01 1.83883442161020e-02 
6.00405092592593e-01 2.08577330219164e-01 1.81330600370387e-02 
6.14872685185185e-01 2.08107012463922e-01 1.94676416458970e-02 
6.29340277777778e-01 2.07602039704768e-01 2.07217781612244e-02 
6.43807870370370e-01 2.07087658903839e-01 2.13302851797542e-02 
6.58275462962963e-01 2.06573482828620e-01 2.18741070353844e-02 
6.72743055555556e-01 2.06054318672262e-01 2.23290278454617e-02 
6.87210648148148e-01 2.05540739862674e-01 2.13697651061748e-02 
7.01678240740741e-01 2.04952032751114e-01 1.96058782043470e-02 
7.16145833333333e-01 2.04538672963234e-01 1.88631590034351e-02 
7.30613425925926e-01 2.04117054479887e-01 1.98102089825695e-02 
7.45081018518519e-01 2.03672287501825e-01 2.04794569562325e-02 
7.59548611111111e-01 2.03223739248788e-01 2.07764872759295e-02 
7.74016203703704e-01 2.02769131876521e-01 2.11416962773118e-02 
7.88483796296296e-01 2.02307775214996e-01 2.08148262244689e-02 
8.02951388888889e-01 2.01798422514782e-01 1.94119165797065e-02 
8.17418981481482e-01 2.01332745682373e-01 1.80824089441778e-02 
8.31886574074074e-01 2.00920865571464e-01 1.78738598325301e-02 
8.46354166666667e-01 2.00478054589592e-01 1.83625345622784e-02 
8.60821759259259e-01 1.99999065117987e-01 1.88391604876554e-02 
8.75289351851852e-01 1.99487525031970e-01 1.91466568617204e-02 
8.89756944444445e-01 1.98947201484851e-01 1.93144591712964e-02 
9.04224537037037e-01 1.98381159784932e-01 1.87975094963867e-02 
9.18692129629630e-01 1.97766384891222e-01 1.76753025610833e-02 
9.33159722222222e-01 1.97244229578888e-01 1.69357159283031e-02 
9.47627314814815e-01 1.96735729342108e-01 1.70064666550057e-02 
9.62094907407408e-01 1.96214081513042e-01 1.72922885835435e-02 
9.76562500000000e-01 1.95677686852439e-01 1.75472764322614e-02 
9.91030092592593e-01 1.95129783856546e-01 1.77202278580155e-02 
1.00549768518519e+00 1.94572124775573e-01 1.78473615794221e-02 
1.01996527777778e+00 1.94006677856388e-01 1.77002899597173e-02 
1.03443287037037e+00 1.93419737212712e-01 1.71743947300149e-02 
1.04890046296296e+00 1.92864538205099e-01 1.67749871383262e-02 
1.06336805555556e+00 1.92326325841802e-01 1.68093947697551e-02 
1.07783564814815e+00 1.91777953383981e-01 1.69778385217350e-02 
1.09230324074074e+00 1.91220736425377e-01 1.71127262880046e-02 
1.10677083333333e+00 1.90655475682081e-01 1.72279765091702e-02 
1.12123842592593e+00 1.90082581320834e-01 1.73360260217474e-02 
1.13570601851852e+00 1.89502028029809e-01 1.72908218683541e-02 
1.15017361111111e+00 1.88905861485986e-01 1.70845224097285e-02 
1.16464120370370e+00 1.88329166493652e-01 1.70213082462262e-02 
1.17910879629630e+00 1.87747842105461e-01 1.71401713451920e-02 
1.19357638888889e+00 1.87157751234904e-01 1.72675148237073e-02 
1.20804398148148e+00 1.86559773485886e-01 1.73817276395120e-02 
1.22251157407407e+00 1.85957676174610e-01 1.74928067165328e-02 
1.23697916666667e+00 1.85351497950453e-01 1.75403904047052e-02 
1.25144675925926e+00 1.84737807034574e-01 1.75231847591321e-02 
1.26591435185185e+00 1.84131883709141e-01 1.75694933405567e-02 
1.28038194444444e+00 1.83522478496893e-01 1.76840663379205e-02 
1.29484953703704e+00 1.82908758507589e-01 1.77969052558143e-02 
1.30931712962963e+00 1.82291262719278e-01 1.79052284943706e-02 
1.32378472222222e+00 1.81671502758738e-01 1.80144028819301e-02 
1.33825231481481e+00 1.81049417612278e-01 1.81091485644941e-02 
1.35271990740741e+00 1.80423879007722e-01 1.81749865290962e-02 
1.36718750000000e+00 1.79798258971765e-01 1.82462171646784e-02 
1.38165509259259e+00 1.79173151749472e-01 1.83516205113086e-02 
1.39612268518519e+00 1.78545420715666e-01 1.84727683471698e-02 
1.41059027777778e+00 1.77915069773806e-01 1.85936931666158e-02 
1.42505787037037e+00 1.77282167734853e-01 1.87125755514142e-02 
1.43952546296296e+00 1.76646841818890e-01 1.88199706352044e-02 
1.45399305555556e+00 1.76008581689485e-01 1.89106231456962e-02 
1.46846064814815e+00 1.75369513529193e-01 1.90019085577959e-02 
1.48292824074074e+00 1.74729528096615e-01 1.91042220048881e-02 
1.49739583333333e+00 1.74087585933775e-01 1.92088455323029e-02 
1.51186342592593e+00 1.73443801714630e-01 1.93111374877133e-02 
1.52633101851852e+00 1.72798250496545e-01 1.94119059317630e-02 
1.54079861111111e+00 1.72150993091977e-01 1.95071751717787e-02 
1.55526620370370e+00 1.71501727114240e-01 1.95949377040777e-02 
1.56973379629630e+00 1.70851642435718e-01 1.96839504548474e-02 
1.58420138888889e+00 1.70200459386777e-01 1.97781860135251e-02 
1.59866898148148e+00 1.69547790702059e-01 1.98733038209340e-02 
1.61313657407407e+00 1.68893693694335e-01 1.99673103650229e-02 
1.62760416666667e+00 1.68238226801135e-01 2.00597017710964e-02 
1.64207175925926e+00 1.67581395616213e-01 2.01485059344806e-02 
1.65653935185185e+00 1.66923225272667e-01 2.02340448017874e-02 
1.67100694444444e+00 1.66264224202161e-01 2.03202418298094e-02 
1.68547453703704e+00 1.65604207853753e-01 2.04078380470622e-02 
1.69994212962963e+00 1.64943088312204e-01 2.04948154408313e-02 
1.71440972222222e+00 1.64281217764280e-01 2.05803961120738e-02 
1.72887731481482e+00 1.63618963191482e-01 2.06644571055357e-02 
1.74334490740741e+00 1.62956396166355e-01 2.07469681903765e-02 
1.75781250000000e+00 1.62293586880433e-01 2.08279469452053e-02 
1.77228009259259e+00 1.61630604449105e-01 2.09074140673996e-02 
1.78674768518519e+00 1.60967516617610e-01 2.09853921918382e-02 
1.80121527777778e+00 1.60304389973046e-01 2.10618091356729e-02 
1.81568287037037e+00 1.59641297166599e-01 2.11364268098251e-02 
1.83015046296296e+00 1.58978319895960e-01 2.12090327071451e-02 
1.84461805555556e+00 1.58315541099571e-01 2.12796060111811e-02 
1.85908564814815e+00 1.57653041413444e-01 2.13482072190706e-02 
1.87355324074074e+00 1.56990899188176e-01 2.14148774702050e-02 
1.88802083333333e+00 1.56329191059227e-01 2.14796519890650e-02 
1.90248842592593e+00 1.55667991783999e-01 2.15425900511427e-02 
1.91695601851852e+00 1.55006958664341e-01 2.16037061185942e-02 
1.93142361111111e+00 1.54345957868090e-01 2.16630054518276e-02 
1.94589120370370e+00 1.53685056628894e-01 2.17205134752261e-02 
1.96035879629630e+00 1.53024320751723e-01 2.17762356571836e-02 
1.97482638888889e+00 1.52363812071464e-01 2.18301355749336e-02 
1.98929398148148e+00 1.51703593932626e-01 2.18821848519660e-02 
2.00376157407407e+00 1.51043732984509e-01 2.19324015661162e-02 
2.01822916666667e+00 1.50384294822973e-01 2.19808121688895e-02 
2.03269675925926e+00 1.49725343700782e-01 2.20274281611991e-02 
2.04716435185185e+00 1.49066942881336e-01 2.20722696586560e-02 
2.06163194444444e+00 1.48409154215860e-01 2.21153646700737e-02 
2.07609953703704e+00 1.47752038309263e-01 2.21567408303127e-02 
2.09056712962963e+00 1.47095654397067e-01 2.21964298059213e-02 
2.10503472222222e+00 1.46440060245174e-01 2.22344683300456e-02 
2.11950231481481e+00 1.45784745398940e-01 2.22708133401510e-02 
2.13396990740741e+00 1.45129664711080e-01 2.23054385772783e-02 
2.14843750000000e+00 1.44474873750392e-01 2.23383673632835e-02 
2.16290509259259e+00 1.43820426910045e-01 2.23696268376863e-02 
2.17737268518519e+00 1.43166377527762e-01 2.23992380099499e-02 
2.19184027777778e+00 1.42512778184710e-01 2.24272073069951e-02 
2.20630787037037e+00 1.41859681252440e-01 2.24534822959032e-02 
2.22077546296296e+00 1.41207064182021e-01 2.24779546648562e-02 
2.23524305555556e+00 1.40554979956526e-01 2.25005615245275e-02 
2.24971064814815e+00 1.39903487386995e-01 2.25212843817140e-02 
2.26417824074074e+00 1.39252644818080e-01 2.25401227984933e-02 
2.27864583333333e+00 1.38602509688047e-01 2.25571036343769e-02 
2.29311342592593e+00 1.37953138125344e-01 2.25722614636098e-02 
2.30758101851852e+00 1.37304585799195e-01 2.25856194796282e-02 
2.32204861111111e+00 1.36656942970601e-01 2.25971961634048e-02 
2.33651620370370e+00 1.36010262794650e-01 2.26070205711695e-02 
2.35098379629630e+00 1.35364597133616e-01 2.26151234651486e-02 
2.36545138888889e+00 1.34719996742461e-01 2.26215315427000e-02 
2.37991898148148e+00 1.34076511333546e-01 2.26262755089624e-02 
2.39438657407407e+00 1.33434189276007e-01 2.26293850030944e-02 
2.40885416666667e+00 1.32793237402592e-01 2.26308256352682e-02 
2.42332175925926e+00 1.32154969580775e-01 2.26306196210586e-02 
2.43778935185185e+00 1.31519431518194e-01 2.26288430428030e-02 
2.45225694444444e+00 1.30886667611920e-01 2.26255207006211e-02 
2.46672453703704e+00 1.30256721018234e-01 2.26206758718401e-02 
2.48119212962963e+00 1.29629633693035e-01 2.26143331514855e-02 
2.49565972222222e+00 1.29005446299621e-01 2.26065318057792e-02 
2.51012731481482e+00 1.28383895241865e-01 2.25973442983203e-02 
2.52459490740741e+00 1.27763807840263e-01 2.25867664939611e-02 
2.53906250000000e+00 1.27145223671378e-01 2.25747507231676e-02 
2.55353009259259e+00 1.26528181298584e-01 2.25613230857657e-02 
2.56799768518519e+00 1.25912718377544e-01 2.25465076058037e-02 
2.58246527777778e+00 1.25298871672423e-01 2.25303358909425e-02 
2.59693287037037e+00 1.24686676607618e-01 2.25128463342913e-02 
2.61140046296296e+00 1.24076200514079e-01 2.24940648295344e-02 
2.62586805555556e+00 1.23467558738005e-01 2.24740148206045e-02 
2.64033564814815e+00 1.22860783529113e-01 2.24527252798541e-02 
2.65480324074074e+00 1.22255906289866e-01 2.24302181974106e-02 
2.66927083333333e+00 1.21652957621911e-01 2.24065147609858e-02 
2.68373842592593e+00 1.21051967333989e-01 2.23816372687007e-02 
2.69820601851852e+00 1.20452964383448e-01 2.23556162331586e-02 
2.71267361111111e+00 1.19855976716611e-01 2.23285012322791e-02 
2.72714120370370e+00 1.19261030549518e-01 2.23003457125329e-02 
2.74160879629630e+00 1.18668150318284e-01 2.22711819338389e-02 
2.75607638888889e+00 1.18077359758073e-01 2.22410277759410e-02 
2.77054398148148e+00 1.17488681979419e-01 2.22098998585302e-02 
2.78501157407407e+00 1.16902139478425e-01 2.21778085097025e-02 
2.79947916666667e+00 1.16317754482991e-01 2.21447634621346e-02 
2.81394675925926e+00 1.15735231952654e-01 2.21107812399679e-02 
2.82841435185185e+00 1.15154229033646e-01 2.20758423883320e-02 
2.84288194444444e+00 1.14574772131651e-01 2.20398868714098e-02 
2.85734953703704e+00 1.13996887489081e-01 2.20028709322533e-02 
2.87181712962963e+00 1.13420601800756e-01 2.19647895578875e-02 
2.88628472222222e+00 1.12845941131844e-01 2.19256596309420e-02 
2.90075231481482e+00 1.12272931102538e-01 2.18854953276577e-02 
2.91521990740741e+00 1.11701605129151e-01 2.18443164485036e-02 
2.92968750000000e+00 1.11131994264513e-01 2.18021470647049e-02 
2.94415509259259e+00 1.10564122123596e-01 2.17590083399436e-02 
2.95862268518519e+00 1.09998011731269e-01 2.17149176606368e-02 
2.97309027777778e+00 1.09433685610088e-01 2.16698915098311e-02 
2.98755787037037e+00 1.08871165737026e-01 2.16239519100353e-02 
3.00202546296296e+00 1.08310473298050e-01 2.15771295745811e-02 
3.01649305555556e+00 1.07751606674826e-01 2.15294533201930e-02 
3.03096064814815e+00 1.07194573124694e-01 2.14809684051497e-02 
3.04542824074074e+00 1.06639387544047e-01 2.14317688218137e-02 
3.05989583333333e+00 1.06086064561952e-01 2.13819439017694e-02 
3.07436342592593e+00 1.05534617175299e-01 2.13315287120973e-02 
3.08883101851852e+00 1.04985058075237e-01 2.12805313802309e-02 
3.10329861111111e+00 1.04437399739305e-01 2.12289623107796e-02 
3.11776620370370e+00 1.03891645833227e-01 2.11768391786812e-02 
3.13223379629630e+00 1.03347804746863e-01 2.11241787744281e-02 
3.14670138888889e+00 1.02805887593945e-01 2.10709939626637e-02 
3.16116898148148e+00 1.02265905133066e-01 2.10172964074981e-02 
3.17563657407407e+00 1.01727867783274e-01 2.09630989911150e-02 
3.19010416666667e+00 1.01191785528697e-01 2.09084211397227e-02 
3.20457175925926e+00 1.00657667686244e-01 2.08532850837250e-02 
3.21903935185185e+00 1.00126086650137e-01 2.07977114164502e-02 
3.23350694444444e+00 9.95971736117604e-02 2.07417387743467e-02 
3.24797453703704e+00 9.90709349475640e-02 2.06853102057511e-02 
3.26244212962963e+00 9.85473768658020e-02 2.06283749920798e-02 
3.27690972222222e+00 9.80265059290743e-02 2.05709291714885e-02 
3.29137731481482e+00 9.75083283749055e-02 2.05129799771484e-02 
3.30584490740741e+00 9.69928502119014e-02 2.04545685390897e-02 
3.32031250000000e+00 9.64790835461150e-02 2.03957723924661e-02 
3.33478009259259e+00 9.59669336046191e-02 2.03365321693518e-02 
3.34924768518519e+00 9.54564110644921e-02 2.02768507885546e-02 
3.36371527777778e+00 9.49475263130625e-02 2.02167390475878e-02 
3.37818287037037e+00 9.44402894574794e-02 2.01562063683598e-02 
3.39265046296296e+00 9.39347103972002e-02 2.00952592196854e-02 
3.40711805555556e+00 9.34307988934657e-02 2.00339072752697e-02 
3.42158564814815e+00 9.29285070890144e-02 1.99721747385190e-02 
3.43605324074074e+00 9.24278428081844e-02 1.99101016653291e-02 
3.45052083333333e+00 9.19288124646957e-02 1.98477498679539e-02 
3.46498842592593e+00 9.14314219376437e-02 1.97851582461458e-02 
3.47945601851852e+00 9.09356767509246e-02 1.97223356522777e-02 
3.49392361111111e+00 9.04415823381876e-02 1.96592846948777e-02 
3.50839120370370e+00 8.99491432583220e-02 1.95960078757393e-02 
3.52285879629630e+00 8.94583553271057e-02 1.95325092219799e-02 
3.53732638888889e+00 8.89692238123061e-02 1.94687932930983e-02 
3.55179398148148e+00 8.84817538041233e-02 1.94048667334202e-02 
3.56626157407407e+00 8.79959502271535e-02 1.93407359116404e-02 
3.58072916666667e+00 8.75118178418231e-02 1.92764101911873e-02 
3.59519675925926e+00 8.70293610677479e-02 1.92119047314523e-02 
3.60966435185185e+00 8.65485803848953e-02 1.91472373330904e-02 
3.62413194444445e+00 8.60694620608697e-02 1.90824415490807e-02 
3.63859953703704e+00 8.55920095574237e-02 1.90175594028226e-02 
3.65306712962963e+00 8.51162250757126e-02 1.89526083151982e-02 
3.66753472222222e+00 8.46421101697322e-02 1.88875886409904e-02 
3.68200231481482e+00 8.41696662892561e-02 1.88225029601804e-02 
3.69646990740741e+00 8.36988948663488e-02 1.87573531328244e-02 
3.71093750000000e+00 8.32297150104160e-02 1.86921505690018e-02 
3.72540509259259e+00 8.27618902153361e-02 1.86269004857052e-02 
3.73987268518519e+00 8.22954243051368e-02 1.85615661124074e-02 
3.75434027777778e+00 8.18303216732510e-02 1.84961335414566e-02 
3.76880787037037e+00 8.13665868614520e-02 1.84306024565297e-02 
3.78327546296296e+00 8.09042242885549e-02 1.83649779125850e-02 
3.79774305555556e+00 8.04432382473256e-02 1.82992803723688e-02 
3.81221064814815e+00 7.99836503169606e-02 1.82336045393546e-02 
3.82667824074074e+00 7.95254943388547e-02 1.81681266096272e-02 
3.84114583333333e+00 7.90687630116163e-02 1.81030071540681e-02 
3.85561342592593e+00 7.86134468559747e-02 1.80383223811119e-02 
3.87008101851852e+00 7.81595358880799e-02 1.79740874405587e-02 
3.88454861111111e+00 7.77070202238671e-02 1.79102979258390e-02 
3.89901620370370e+00 7.72558900730631e-02 1.78469499546317e-02 
3.91348379629630e+00 7.68061179983467e-02 1.77840386006504e-02 
3.92795138888889e+00 7.63576713977397e-02 1.77215862197959e-02 
3.94241898148148e+00 7.59105396762591e-02 1.76596543787410e-02 
3.95688657407407e+00 7.54647103298664e-02 1.75982857948169e-02 
3.97135416666667e+00 7.50201705239883e-02 1.75374829848408e-02 
3.98582175925926e+00 7.45769075811118e-02 1.74772373458291e-02 
4.00028935185185e+00 7.41349090672693e-02 1.74174612224740e-02 
4.01475694444444e+00 7.36942831197765e-02 1.73579512504187e-02 
4.02922453703704e+00 7.32551335966255e-02 1.72986279744189e-02 
4.04369212962963e+00 7.28174563162635e-02 1.72395956021401e-02 
4.05815972222222e+00 7.23812424570216e-02 1.71809132581974e-02 
4.07262731481481e+00 7.19464833485225e-02 1.71225736396109e-02 
4.08709490740741e+00 7.15131704344369e-02 1.70645724971484e-02 
4.10156250000000e+00 7.10812952602911e-02 1.70069282810321e-02 
4.11603009259259e+00 7.06505233485124e-02 1.69496876995628e-02 
4.13049768518519e+00 7.02206382447752e-02 1.68927890337744e-02 
4.14496527777778e+00 6.97916367400311e-02 1.68361077636756e-02 
4.15943287037037e+00 6.93635182670838e-02 1.67795902221391e-02 
4.17390046296296e+00 6.89362823514988e-02 1.67232332020040e-02 
4.18836805555556e+00 6.85099281955261e-02 1.66670215315343e-02 
4.20283564814815e+00 6.80844518062433e-02 1.66109170566530e-02 
4.21730324074074e+00 6.76602139426648e-02 1.65548981744145e-02 
4.23177083333333e+00 6.72373687217731e-02 1.64990207823698e-02 
4.24623842592593e+00 6.68159113800708e-02 1.64433066109746e-02 
4.26070601851852e+00 6.63958381002564e-02 1.63877533056881e-02 
4.27517361111111e+00 6.59771448935248e-02 1.63323634824606e-02 
4.28964120370370e+00 6.55598278111278e-02 1.62771346506640e-02 
4.30410879629630e+00 6.51438829949496e-02 1.62220442403119e-02 
4.31857638888889e+00 6.47293158185368e-02 1.61670772289160e-02 
4.33304398148148e+00 6.43161253576921e-02 1.61122977515634e-02 
4.34751157407407e+00 6.39043054451833e-02 1.60577958819631e-02 
4.36197916666667e+00 6.34938482289122e-02 1.60036020135458e-02 
4.37644675925926e+00 6.30847459604766e-02 1.59497122596301e-02 
4.39091435185185e+00 6.26769909870003e-02 1.58961230192717e-02 
4.40538194444444e+00 6.22705757445023e-02 1.58427404691441e-02 
4.41984953703704e+00 6.18654776747768e-02 1.57894130870044e-02 
4.43431712962963e+00 6.14616942690752e-02 1.57361029482649e-02 
4.44878472222222e+00 6.10592245151462e-02 1.56828292367219e-02 
4.46325231481482e+00 6.06580679311142e-02 1.56295888208974e-02 
4.47771990740741e+00 6.02582239650305e-02 1.55763833361998e-02 
4.49218750000000e+00 5.98596920495058e-02 1.55232134507960e-02 
