Energy(eV)           EEDF(eV^-(3/2))      Anisotropy(eV^-(3/2))
8.68055555555556e-03 5.77039273362882e-01 2.83008503183542e-02 
2.60416666666667e-02 5.74633908947375e-01 2.31722806220041e-02 
4.34027777777778e-02 5.70309040069364e-01 4.48119447702938e-02 
6.07638888888889e-02 5.64708846550279e-01 6.24370246893662e-02 
7.81250000000000e-02 5.58603404848624e-01 7.47302609605435e-02 
9.54861111111111e-02 5.52340740767171e-01 8.26696279796724e-02 
1.12847222222222e-01 5.46295903740523e-01 8.73486358012892e-02 
1.30208333333333e-01 5.40513598366465e-01 9.00741298752302e-02 
1.47569444444444e-01 5.34869227711035e-01 9.22925762910546e-02 
1.64930555555556e-01 5.29408686538404e-01 9.44161415953862e-02 
1.82291666666667e-01 5.24266491723030e-01 9.54016396378263e-02 
1.99652777777778e-01 5.19405391838427e-01 9.56160429914032e-02 
2.17013888888889e-01 5.14752569459012e-01 9.59144824079435e-02 
2.34375000000000e-01 5.10242647814511e-01 9.60084185124722e-02 
2.51736111111111e-01 5.05892703030865e-01 9.59319376305018e-02 
2.69097222222222e-01 5.01730716957927e-01 9.71606284989435e-02 
2.86458333333333e-01 4.97664809420613e-01 9.95298540329851e-02 
3.03819444444445e-01 4.93722196692352e-01 9.96810961402815e-02 
3.21180555555556e-01 4.89975183111970e-01 9.72276673417962e-02 
3.38541666666667e-01 4.86353506792863e-01 9.42192714356677e-02 
3.55902777777778e-01 4.82994515866161e-01 9.09930199151501e-02 
3.73263888888889e-01 4.79811542409388e-01 8.78211202054676e-02 
3.90625000000000e-01 4.76777020958237e-01 8.62713394166547e-02 
4.07986111111111e-01 4.73782215759320e-01 8.62789887617984e-02 
4.25347222222222e-01 4.70815074807975e-01 8.55125632218966e-02 
4.42708333333333e-01 4.67930232322473e-01 8.32832952676077e-02 
4.60069444444445e-01 4.64975139974328e-01 8.02016638579449e-02 
4.77430555555556e-01 4.62346320224954e-01 7.73903434271415e-02 
4.94791666666667e-01 4.59818758093349e-01 7.56299552575403e-02 
5.12152777777778e-01 4.57364517519739e-01 7.51503878640963e-02 
5.29513888888889e-01 4.54905225872586e-01 7.59540028264985e-02 
5.46875000000000e-01 4.52428971254072e-01 7.61713107385349e-02 
5.64236111111111e-01 4.49984485664660e-01 7.44749486452491e-02 
5.81597222222222e-01 4.47410430134768e-01 7.17782954489168e-02 
5.98958333333333e-01 4.45175407674137e-01 6.99386335078901e-02 
6.16319444444445e-01 4.42983985580935e-01 7.00263129612877e-02 
6.33680555555556e-01 4.40805573037570e-01 7.10096695808121e-02 
6.51041666666667e-01 4.38629671731169e-01 7.17065424335056e-02 
6.68402777777778e-01 4.36486179414666e-01 7.19417590842810e-02 
6.85763888888889e-01 4.34374073613251e-01 7.11470524794986e-02 
7.03125000000000e-01 4.32140853915955e-01 6.94371804806280e-02 
7.20486111111111e-01 4.30189074425090e-01 6.87305365386808e-02 
7.37847222222222e-01 4.28231583493656e-01 6.94869165789122e-02 
7.55208333333333e-01 4.26253777943088e-01 7.04405555721227e-02 
7.72569444444445e-01 4.24259423956810e-01 7.12935625793807e-02 
7.89930555555556e-01 4.22250861236038e-01 7.13837694141431e-02 
8.07291666666667e-01 4.20093112949622e-01 7.05935228220656e-02 
8.24652777777778e-01 4.18062810299416e-01 7.04155785248406e-02 
8.42013888888889e-01 4.16013376630752e-01 7.14311781831048e-02 
8.59375000000000e-01 4.13884375710869e-01 7.29223315989049e-02 
8.76736111111111e-01 4.11664870524865e-01 7.45788238878346e-02 
8.94097222222222e-01 4.09352304322245e-01 7.60486159257953e-02 
9.11458333333334e-01 4.06921021223011e-01 7.70423882553545e-02 
9.28819444444445e-01 4.04426542782964e-01 7.79997390072738e-02 
9.46180555555556e-01 4.01963406555873e-01 7.95615339482531e-02 
9.63541666666667e-01 3.99433419877667e-01 8.15595829458249e-02 
9.80902777777778e-01 3.96830229165644e-01 8.37106302724471e-02 
9.98263888888889e-01 3.94149761947508e-01 8.59033281251545e-02 
1.01562500000000e+00 3.91383521624169e-01 8.79429541995777e-02 
1.03298611111111e+00 3.88485271116197e-01 8.97021702262290e-02 
1.05034722222222e+00 3.85508122136376e-01 9.14956814009065e-02 
1.06770833333333e+00 3.82482056169783e-01 9.36028875861169e-02 
1.08506944444444e+00 3.79353439348649e-01 9.58403959240689e-02 
1.10243055555556e+00 3.76121066302870e-01 9.80471123915022e-02 
1.11979166666667e+00 3.72786286983160e-01 1.00220037036773e-01 
1.13715277777778e+00 3.69348754189067e-01 1.02264658628288e-01 
1.15451388888889e+00 3.65772593907931e-01 1.04167419635713e-01 
1.17187500000000e+00 3.62141408019695e-01 1.06195991784121e-01 
1.18923611111111e+00 3.58403012471719e-01 1.08315247040203e-01 
1.20659722222222e+00 3.54555730830200e-01 1.10388880906427e-01 
1.22395833333333e+00 3.50595122361411e-01 1.12379137427946e-01 
1.24131944444444e+00 3.46513287933949e-01 1.14238461453518e-01 
1.25868055555556e+00 3.42313407587648e-01 1.15983136227318e-01 
1.27604166666667e+00 3.38018082855384e-01 1.17660982979443e-01 
1.29340277777778e+00 3.33611672233091e-01 1.19216772389530e-01 
1.31076388888889e+00 3.29096795068550e-01 1.20586070439780e-01 
1.32812500000000e+00 3.24475002234212e-01 1.21743339520706e-01 
1.34548611111111e+00 3.19750992000059e-01 1.22653325299791e-01 
1.36284722222222e+00 3.14921941734441e-01 1.23301502502270e-01 
1.38020833333333e+00 3.10015064520944e-01 1.23718104093638e-01 
1.39756944444444e+00 3.05025626926922e-01 1.23891963336752e-01 
1.41493055555556e+00 2.99962077194762e-01 1.23801251972190e-01 
1.43229166666667e+00 2.94832817863263e-01 1.23451045467691e-01 
1.44965277777778e+00 2.89646113995083e-01 1.22848062683330e-01 
1.46701388888889e+00 2.84410863560707e-01 1.22013883218950e-01 
1.48437500000000e+00 2.79141460365985e-01 1.20982656935848e-01 
1.50173611111111e+00 2.73845247697848e-01 1.19780954937290e-01 
1.51909722222222e+00 2.68546514645578e-01 1.18431694506139e-01 
1.53645833333333e+00 2.63263466766061e-01 1.16962810278493e-01 
1.55381944444444e+00 2.58006198832171e-01 1.15403057758238e-01 
1.57118055555556e+00 2.52783153187235e-01 1.13781736190567e-01 
1.58854166666667e+00 2.47603358643772e-01 1.12121486094424e-01 
1.60590277777778e+00 2.42473477201377e-01 1.10437872909720e-01 
1.62326388888889e+00 2.37411766538559e-01 1.08736440618925e-01 
1.64062500000000e+00 2.32426047805884e-01 1.07019321374697e-01 
1.65798611111111e+00 2.27517991556197e-01 1.05285356870843e-01 
1.67534722222222e+00 2.22690316302645e-01 1.03531253200404e-01 
1.69270833333333e+00 2.17944661384569e-01 1.01748720120724e-01 
1.71006944444444e+00 2.13280675311587e-01 9.99300733462496e-02 
1.72743055555556e+00 2.08721257121592e-01 9.80604819978560e-02 
1.74479166666667e+00 2.04265175889268e-01 9.61323393970563e-02 
1.76215277777778e+00 1.99912247755421e-01 9.41415229482450e-02 
1.77951388888889e+00 1.95663403164662e-01 9.20892364872429e-02 
1.79687500000000e+00 1.91519266538968e-01 8.99831577331470e-02 
1.81423611111111e+00 1.87480654247290e-01 8.78391954390182e-02 
1.83159722222222e+00 1.83549604641529e-01 8.56770232064369e-02 
1.84895833333333e+00 1.79725708569161e-01 8.35217529803850e-02 
1.86631944444444e+00 1.76009729888105e-01 8.14007742894952e-02 
1.88368055555556e+00 1.72400831082107e-01 7.93364538352245e-02 
1.90104166666667e+00 1.68897590959922e-01 7.73453476949564e-02 
1.91840277777778e+00 1.65508756686891e-01 7.54343213047986e-02 
1.93576388888889e+00 1.62238996852282e-01 7.36019145646979e-02 
1.95312500000000e+00 1.59085003192852e-01 7.18407579031285e-02 
1.97048611111111e+00 1.56044667946084e-01 7.01381769340916e-02 
1.98784722222222e+00 1.53114162039560e-01 6.84819688825124e-02 
2.00520833333333e+00 1.50292184911515e-01 6.68623318273030e-02 
2.02256944444445e+00 1.47574725554263e-01 6.52732490118994e-02 
2.03993055555556e+00 1.44958268958451e-01 6.37117116536839e-02 
2.05729166666667e+00 1.42439198297898e-01 6.21800197854625e-02 
2.07465277777778e+00 1.40012770149894e-01 6.06825505694331e-02 
2.09201388888889e+00 1.37673888709381e-01 5.92226249097825e-02 
2.10937500000000e+00 1.35418153665220e-01 5.77999379798799e-02 
2.12673611111111e+00 1.33226827659976e-01 5.64191293560885e-02 
2.14409722222222e+00 1.31097615442400e-01 5.50759643044357e-02 
2.16145833333333e+00 1.29028738956956e-01 5.37668021644303e-02 
2.17881944444445e+00 1.27017981690974e-01 5.24888642891716e-02 
2.19618055555556e+00 1.25066520712925e-01 5.12407057134666e-02 
2.21354166666667e+00 1.23171596080655e-01 5.00237684565547e-02 
2.23090277777778e+00 1.21329912283950e-01 4.88417640374213e-02 
2.24826388888889e+00 1.19541886199681e-01 4.76978009929945e-02 
2.26562500000000e+00 1.17806082875055e-01 4.65966601903533e-02 
2.28298611111111e+00 1.16121049083372e-01 4.55448248827304e-02 
2.30034722222222e+00 1.14484674903040e-01 4.45446711160507e-02 
2.31770833333333e+00 1.12892627974766e-01 4.35948218522437e-02 
2.33506944444445e+00 1.11342233218096e-01 4.26909636165939e-02 
2.35243055555556e+00 1.09829332032906e-01 4.18286569383864e-02 
2.36979166666667e+00 1.08351414725291e-01 4.10058563112837e-02 
2.38715277777778e+00 1.06906256321147e-01 4.02192439093130e-02 
2.40451388888889e+00 1.05491890793282e-01 3.94635051910993e-02 
2.42187500000000e+00 1.04108756248395e-01 3.87360044752539e-02 
2.43923611111111e+00 1.02756891957885e-01 3.80348273280847e-02 
2.45659722222222e+00 1.01435513735642e-01 3.73614476768604e-02 
2.47395833333333e+00 1.00145925290896e-01 3.67202284602668e-02 
2.49131944444445e+00 9.88864344816441e-02 3.61141889337304e-02 
2.50868055555556e+00 9.76566497928123e-02 3.55423377070737e-02 
2.52604166666667e+00 9.64506584270919e-02 3.50013445899279e-02 
2.54340277777778e+00 9.52667911826578e-02 3.44862980580020e-02 
2.56076388888889e+00 9.41038520891391e-02 3.39971481341315e-02 
2.57812500000000e+00 9.29601725106439e-02 3.35298222674953e-02 
2.59548611111111e+00 9.18330902162054e-02 3.30778303358280e-02 
2.61284722222222e+00 9.07227590142364e-02 3.26367283909992e-02 
2.63020833333333e+00 8.96274638596665e-02 3.22018275349703e-02 
2.64756944444445e+00 8.85474920090025e-02 3.17706089561852e-02 
2.66493055555556e+00 8.74834778659274e-02 3.13441285616913e-02 
2.68229166666667e+00 8.64350165965316e-02 3.09230101586118e-02 
2.69965277777778e+00 8.54028357400066e-02 3.05109857494967e-02 
2.71701388888889e+00 8.43875313544578e-02 3.01121016847177e-02 
2.73437500000000e+00 8.33878301835525e-02 2.97282944537489e-02 
2.75173611111111e+00 8.24041468929330e-02 2.93616881799161e-02 
2.76909722222222e+00 8.14350798792134e-02 2.90115586380889e-02 
2.78645833333333e+00 8.04793455768058e-02 2.86745505846597e-02 
2.80381944444445e+00 7.95363592211156e-02 2.83482843388547e-02 
2.82118055555556e+00 7.86027634177010e-02 2.80293735682125e-02 
2.83854166666667e+00 7.76777206644235e-02 2.77144831226020e-02 
2.85590277777778e+00 7.67616159494583e-02 2.74017394843816e-02 
2.87326388888889e+00 7.58536656451284e-02 2.70894386916766e-02 
2.89062500000000e+00 7.49545034422957e-02 2.67782466252584e-02 
2.90798611111111e+00 7.40644124470873e-02 2.64700005463448e-02 
2.92534722222222e+00 7.31832712446121e-02 2.61660507861479e-02 
2.94270833333333e+00 7.23114573482900e-02 2.58685176675322e-02 
2.96006944444445e+00 7.14486776752442e-02 2.55784906166474e-02 
2.97743055555556e+00 7.05944397032367e-02 2.52960230038162e-02 
2.99479166666667e+00 6.97485277371491e-02 2.50207636247034e-02 
3.01215277777778e+00 6.89096788091645e-02 2.47515729573149e-02 
3.02951388888889e+00 6.80777896953853e-02 2.44874425617451e-02 
3.04687500000000e+00 6.72526672278397e-02 2.42271453237426e-02 
3.06423611111111e+00 6.64338160960042e-02 2.39686895736272e-02 
3.08159722222222e+00 6.56212511476494e-02 2.37102369328965e-02 
3.09895833333333e+00 6.48151706756483e-02 2.34489890368462e-02 
3.11631944444445e+00 6.40157356318822e-02 2.31837823490304e-02 
3.13368055555556e+00 6.32234442688933e-02 2.29176891256238e-02 
3.15104166666667e+00 6.24383040030703e-02 2.26537656875520e-02 
3.16840277777778e+00 6.16602551481222e-02 2.23925136258871e-02 
3.18576388888889e+00 6.08893473731182e-02 2.21337467141589e-02 
3.20312500000000e+00 6.01251617099421e-02 2.18775344089373e-02 
3.22048611111111e+00 5.93679730791884e-02 2.16243705473297e-02 
3.23784722222222e+00 5.86178605149444e-02 2.13735610692014e-02 
3.25520833333333e+00 5.78746021941382e-02 2.11220264400155e-02 
3.27256944444445e+00 5.71382856849043e-02 2.08672224538006e-02 
3.28993055555556e+00 5.64090508628972e-02 2.06085134132139e-02 
3.30729166666667e+00 5.56870477056490e-02 2.03461283722272e-02 
3.32465277777778e+00 5.49720358889209e-02 2.00803773150220e-02 
3.34201388888889e+00 5.42642063495511e-02 1.98104987660971e-02 
3.35937500000000e+00 5.35637375569037e-02 1.95357725574634e-02 
3.37673611111111e+00 5.28709425249349e-02 1.92563071768599e-02 
3.39409722222222e+00 5.21859937462498e-02 1.89723581600647e-02 
3.41145833333333e+00 5.15090497460243e-02 1.86849637493729e-02 
3.42881944444445e+00 5.08402257376627e-02 1.83958436195198e-02 
3.44618055555556e+00 5.01795095153196e-02 1.81055404404187e-02 
3.46354166666667e+00 4.95269978586729e-02 1.78138646534598e-02 
3.48090277777778e+00 4.88828169267504e-02 1.75208295606763e-02 
3.49826388888889e+00 4.82470493988721e-02 1.72264767534398e-02 
3.51562500000000e+00 4.76198320055491e-02 1.69310075438707e-02 
3.53298611111111e+00 4.70013119339129e-02 1.66346029473627e-02 
3.55034722222222e+00 4.63915990879638e-02 1.63369814066423e-02 
3.56770833333333e+00 4.57907194478599e-02 1.60392800888618e-02 
3.58506944444445e+00 4.51991668214786e-02 1.57452360165251e-02 
3.60243055555556e+00 4.46172155591125e-02 1.54590935899839e-02 
3.61979166666667e+00 4.40449436230927e-02 1.51827184864701e-02 
3.63715277777778e+00 4.34817429543792e-02 1.49146946787550e-02 
3.65451388888889e+00 4.29279680233923e-02 1.46520474127489e-02 
3.67187500000000e+00 4.23836268431539e-02 1.43936791551036e-02 
3.68923611111111e+00 4.18485615358371e-02 1.41394590329589e-02 
3.70659722222222e+00 4.13226239845829e-02 1.38895639791023e-02 
3.72395833333333e+00 4.08056516780422e-02 1.36445547614527e-02 
3.74131944444445e+00 4.02973691926607e-02 1.34043529011995e-02 
3.75868055555556e+00 3.97976202342488e-02 1.31678691398260e-02 
3.77604166666667e+00 3.93063146287729e-02 1.29341674872038e-02 
3.79340277777778e+00 3.88233599963409e-02 1.27030246620164e-02 
3.81076388888889e+00 3.83486211824985e-02 1.24746773021390e-02 
3.82812500000000e+00 3.78820523555446e-02 1.22494370282011e-02 
3.84548611111111e+00 3.74235297459912e-02 1.20273940354576e-02 
3.86284722222222e+00 3.69729380043478e-02 1.18084432167980e-02 
3.88020833333333e+00 3.65301901942251e-02 1.15924826000318e-02 
3.89756944444445e+00 3.60950837671553e-02 1.13796530414173e-02 
3.91493055555556e+00 3.56675314557965e-02 1.11705713397052e-02 
3.93229166666667e+00 3.52475018190531e-02 1.09658122993002e-02 
3.94965277777778e+00 3.48348383600576e-02 1.07655052047300e-02 
3.96701388888889e+00 3.44293827979143e-02 1.05698227008421e-02 
3.98437500000000e+00 3.40312654069921e-02 1.03788320618980e-02 
4.00173611111111e+00 3.36404021088452e-02 1.01925588047306e-02 
4.01909722222222e+00 3.32565891895426e-02 1.00111547061200e-02 
4.03645833333333e+00 3.28796203954088e-02 9.83472462127151e-03 
4.05381944444445e+00 3.25093006254163e-02 9.66323407314611e-03 
4.07118055555556e+00 3.21456631033659e-02 9.49652597616813e-03 
4.08854166666667e+00 3.17886131199787e-02 9.33456662268821e-03 
4.10590277777778e+00 3.14379546351188e-02 9.17728789893534e-03 
4.12326388888889e+00 3.10933212044450e-02 9.02448387851770e-03 
4.14062500000000e+00 3.07545207994742e-02 8.87579961230862e-03 
4.15798611111111e+00 3.04214031906372e-02 8.73090102906878e-03 
4.17534722222222e+00 3.00938266944697e-02 8.58963964145400e-03 
4.19270833333333e+00 2.97716464545095e-02 8.45205193311504e-03 
4.21006944444445e+00 2.94547309443403e-02 8.31824811817365e-03 
4.22743055555556e+00 2.91430994663839e-02 8.18832495993431e-03 
4.24479166666667e+00 2.88365835538987e-02 8.06232038068775e-03 
4.26215277777778e+00 2.85350055006835e-02 7.94021975233907e-03 
4.27951388888889e+00 2.82382083600043e-02 7.82208964589432e-03 
4.29687500000000e+00 2.79460323020404e-02 7.70794160979238e-03 
4.31423611111111e+00 2.76583213003126e-02 7.59769179776591e-03 
4.33159722222222e+00 2.73749251384011e-02 7.49124807477475e-03 
4.34895833333333e+00 2.70956979987215e-02 7.38846997188563e-03 
4.36631944444445e+00 2.68204985946968e-02 7.28913942615345e-03 
4.38368055555556e+00 2.65491949576270e-02 7.19308181870473e-03 
4.40104166666667e+00 2.62816589259247e-02 7.10016766017477e-03 
4.41840277777778e+00 2.60177582426410e-02 7.01023156480416e-03 
4.43576388888889e+00 2.57574275017037e-02 6.92312289098705e-03 
4.45312500000000e+00 2.55006556717919e-02 6.83875736596823e-03 
4.47048611111111e+00 2.52473311584451e-02 6.75709112425463e-03 
4.48784722222222e+00 2.49973454410529e-02 6.67806346641559e-03 
4.50520833333333e+00 2.47505926920204e-02 6.60134660860731e-03 
4.52256944444445e+00 2.45068793641774e-02 6.52633733459472e-03 
4.53993055555556e+00 2.42664771472285e-02 6.45264410574379e-03 
4.55729166666667e+00 2.40294516159518e-02 6.38035304975166e-03 
4.57465277777778e+00 2.37957325524037e-02 6.30952736328721e-03 
4.59201388888889e+00 2.35652511745590e-02 6.24013237575191e-03 
4.60937500000000e+00 2.33379394602397e-02 6.17205507047645e-03 
4.62673611111111e+00 2.31137132763407e-02 6.10511896062613e-03 
4.64409722222222e+00 2.28925409816208e-02 6.03919403205828e-03 
4.66145833333333e+00 2.26743736914218e-02 5.97421585147749e-03 
4.67881944444445e+00 2.24591641012421e-02 5.91014316614268e-03 
4.69618055555556e+00 2.22468662351281e-02 5.84695136967162e-03 
4.71354166666667e+00 2.20374344748979e-02 5.78460030220835e-03 
4.73090277777778e+00 2.18308240731158e-02 5.72308532812526e-03 
4.74826388888889e+00 2.16269916815214e-02 5.66272848636702e-03 
4.76562500000000e+00 2.14258718979392e-02 5.60415519054580e-03 
4.78298611111111e+00 2.12273772406585e-02 5.54773998553407e-03 
4.80034722222222e+00 2.10314170044049e-02 5.49350712469047e-03 
4.81770833333333e+00 2.08379049610176e-02 5.44143070269771e-03 
4.83506944444445e+00 2.06467581796194e-02 5.39153566137237e-03 
4.85243055555556e+00 2.04579209700348e-02 5.34384175504599e-03 
4.86979166666667e+00 2.02713050669738e-02 5.29832906881602e-03 
4.88715277777778e+00 2.00868242656198e-02 5.25495117316230e-03 
4.90451388888889e+00 1.99043949964063e-02 5.21342672565066e-03 
4.92187500000000e+00 1.97238749539580e-02 5.17319456414229e-03 
4.93923611111111e+00 1.95451983424435e-02 5.13386112483587e-03 
4.95659722222222e+00 1.93683374019120e-02 5.09534034551895e-03 
4.97395833333333e+00 1.91932574877009e-02 5.05761715953735e-03 
4.99131944444445e+00 1.90199244005855e-02 5.02067529636260e-03 
5.00868055555556e+00 1.88483044730053e-02 4.98451448893531e-03 
5.02604166666667e+00 1.86782708473072e-02 4.94920359571723e-03 
5.04340277777778e+00 1.85097844498169e-02 4.91498963376474e-03 
5.06076388888889e+00 1.83427824441978e-02 4.88218373295475e-03 
5.07812500000000e+00 1.81771786381335e-02 4.85077715558588e-03 
5.09548611111111e+00 1.80129061848274e-02 4.82053747227306e-03 
5.11284722222222e+00 1.78499188994453e-02 4.79113103132552e-03 
5.13020833333333e+00 1.76881708314507e-02 4.76218923031758e-03 
5.14756944444445e+00 1.75276483432866e-02 4.73356066861246e-03 
5.16493055555556e+00 1.73683500139065e-02 4.70524773324031e-03 
5.18229166666667e+00 1.72103037353373e-02 4.67724520004186e-03 
5.19965277777778e+00 1.70534953081123e-02 4.64953854092656e-03 
5.21701388888889e+00 1.68978984134731e-02 4.62208566775367e-03 
5.23437500000000e+00 1.67434878651247e-02 4.59484551464612e-03 
5.25173611111111e+00 1.65902536850795e-02 4.56780129209214e-03 
5.26909722222222e+00 1.64381861228675e-02 4.54094965971217e-03 
5.28645833333333e+00 1.62872786979791e-02 4.51428772095582e-03 
5.30381944444445e+00 1.61375234176790e-02 4.48781236478149e-03 
5.32118055555556e+00 1.59888886693498e-02 4.46152234029814e-03 
5.33854166666667e+00 1.58413568189052e-02 4.43541387466476e-03 
5.35590277777778e+00 1.56949191079383e-02 4.40948248902126e-03 
5.37326388888889e+00 1.55495669336911e-02 4.38372434054548e-03 
5.39062500000000e+00 1.54052918041805e-02 4.35813731362014e-03 
