Energy(eV)           EEDF(eV^-(3/2))      Anisotropy(eV^-(3/2))
1.25000000000000e-02 2.37529697747330e-01 4.00342791112932e-03 
3.75000000000000e-02 2.37458934929392e-01 3.06469999329673e-03 
6.25000000000000e-02 2.37340662661190e-01 5.25297554844290e-03 
8.75000000000000e-02 2.37185565533851e-01 6.84841150036379e-03 
1.12500000000000e-01 2.37009903138228e-01 7.86433423740015e-03 
1.37500000000000e-01 2.36823272434527e-01 8.66303314874600e-03 
1.62500000000000e-01 2.36618103290167e-01 9.39533512494253e-03 
1.87500000000000e-01 2.36404100942237e-01 9.96497587465669e-03 
2.12500000000000e-01 2.36180898544838e-01 1.04364150138503e-02 
2.37500000000000e-01 2.35946554532594e-01 1.08089742089323e-02 
2.62500000000000e-01 2.35704388125169e-01 1.17962179094684e-02 
2.87500000000000e-01 2.35425048058451e-01 1.33725349490843e-02 
3.12500000000000e-01 2.35113754394735e-01 1.41354065702880e-02 
3.37500000000000e-01 2.34793032218565e-01 1.41679298310529e-02 
3.62500000000000e-01 2.34474601834933e-01 1.41314299162779e-02 
3.87500000000000e-01 2.34153445088003e-01 1.47081124024367e-02 
4.12500000000000e-01 2.33798547026429e-01 1.62309459831116e-02 
4.37500000000000e-01 2.33395765853098e-01 1.70056413951077e-02 
4.62500000000000e-01 2.32952819108283e-01 1.65406646246291e-02 
4.87500000000000e-01 2.32564336889816e-01 1.62848536974050e-02 
5.12500000000000e-01 2.32165028917565e-01 1.69098203899486e-02 
5.37500000000000e-01 2.31739244801918e-01 1.79972096465012e-02 
5.62500000000000e-01 2.31282492870358e-01 1.83905084093519e-02 
5.87500000000000e-01 2.30783647511279e-01 1.80534412994208e-02 
6.12500000000000e-01 2.30341154745517e-01 1.85980479445917e-02 
6.37500000000000e-01 2.29869265429593e-01 2.01588357583415e-02 
6.62500000000000e-01 2.29364520577292e-01 2.14585878925341e-02 
6.87500000000000e-01 2.28845486128377e-01 2.20563413694400e-02 
7.12500000000000e-01 2.28287646547638e-01 2.23417592988042e-02 
7.37500000000000e-01 2.27763362831013e-01 2.31163626803318e-02 
7.62500000000000e-01 2.27211126224462e-01 2.43799058088392e-02 
7.87500000000000e-01 2.26627328921217e-01 2.52444958983830e-02 
8.12500000000000e-01 2.25964134415618e-01 2.56095672252255e-02 
8.37500000000000e-01 2.25336659570234e-01 2.65973184325090e-02 
8.62500000000000e-01 2.24644127294827e-01 2.81907270615272e-02 
8.87500000000000e-01 2.23880394938157e-01 2.98317243391966e-02 
9.12500000000000e-01 2.23042654633789e-01 3.14017957110922e-02 
9.37500000000000e-01 2.22138478696094e-01 3.29445066013966e-02 
9.62500000000000e-01 2.21195809025866e-01 3.46962771055243e-02 
9.87500000000000e-01 2.20189707386276e-01 3.66130295580302e-02 
1.01250000000000e+00 2.19117661521572e-01 3.84521057465851e-02 
1.03750000000000e+00 2.17956048350466e-01 4.01588877812750e-02 
1.06250000000000e+00 2.16746124495667e-01 4.19935004999076e-02 
1.08750000000000e+00 2.15458338559077e-01 4.39024191781476e-02 
1.11250000000000e+00 2.14091443649425e-01 4.57763635453035e-02 
1.13750000000000e+00 2.12645884663516e-01 4.75894446451652e-02 
1.16250000000000e+00 2.11108610754690e-01 4.93583392116790e-02 
1.18750000000000e+00 2.09504140174398e-01 5.11990129618916e-02 
1.21250000000000e+00 2.07813140201861e-01 5.30743077090847e-02 
1.23750000000000e+00 2.06031626430927e-01 5.49090736130852e-02 
1.26250000000000e+00 2.04151375543995e-01 5.66775761190291e-02 
1.28750000000000e+00 2.02185425500396e-01 5.83913589367904e-02 
1.31250000000000e+00 2.00125343035077e-01 5.99954967344200e-02 
1.33750000000000e+00 1.97972214783760e-01 6.14153642077983e-02 
1.36250000000000e+00 1.95723603613421e-01 6.26132762549208e-02 
1.38750000000000e+00 1.93396140959662e-01 6.35961254832094e-02 
1.41250000000000e+00 1.90987287395599e-01 6.43440581169574e-02 
1.43750000000000e+00 1.88503649328704e-01 6.48370874263581e-02 
1.46250000000000e+00 1.85949611326859e-01 6.50940933443959e-02 
1.48750000000000e+00 1.83337734965297e-01 6.51591079532881e-02 
1.51250000000000e+00 1.80672329573198e-01 6.50695583394272e-02 
1.53750000000000e+00 1.77979049219133e-01 6.48564505946114e-02 
1.56250000000000e+00 1.75264857523192e-01 6.45586838597869e-02 
1.58750000000000e+00 1.72539244444181e-01 6.42051077105976e-02 
1.61250000000000e+00 1.69808234585012e-01 6.38022964846632e-02 
1.63750000000000e+00 1.67090585259517e-01 6.33462267691098e-02 
1.66250000000000e+00 1.64391723686575e-01 6.28353082125614e-02 
1.68750000000000e+00 1.61715904829996e-01 6.22585327423022e-02 
1.71250000000000e+00 1.59064203839788e-01 6.15986231879068e-02 
1.73750000000000e+00 1.56457591733393e-01 6.08408361020128e-02 
1.76250000000000e+00 1.53897579660053e-01 5.99806436115790e-02 
1.78750000000000e+00 1.51385814869857e-01 5.90159139832930e-02 
1.81250000000000e+00 1.48924905510134e-01 5.79550265266536e-02 
1.83750000000000e+00 1.46518294211979e-01 5.68244690148771e-02 
1.86250000000000e+00 1.44168731058035e-01 5.56650939208595e-02 
1.88750000000000e+00 1.41878842407816e-01 5.45201868454176e-02 
1.91250000000000e+00 1.39650486393520e-01 5.34201007232999e-02 
1.93750000000000e+00 1.37498853224526e-01 5.23692577544529e-02 
1.96250000000000e+00 1.35423855089725e-01 5.13667807216513e-02 
1.98750000000000e+00 1.33425986859035e-01 5.04010555509711e-02 
2.01250000000000e+00 1.31503302124882e-01 4.94505187008524e-02 
2.03750000000000e+00 1.29653278534844e-01 4.84989083247000e-02 
2.06250000000000e+00 1.27874778597074e-01 4.75475012628979e-02 
2.08750000000000e+00 1.26163809223491e-01 4.66030434849193e-02 
2.11250000000000e+00 1.24515579903558e-01 4.56660716942060e-02 
2.13750000000000e+00 1.22912241573509e-01 4.47462006803495e-02 
2.16250000000000e+00 1.21353375348617e-01 4.38464047982308e-02 
2.18750000000000e+00 1.19837419236606e-01 4.29655400144756e-02 
2.21250000000000e+00 1.18365425420592e-01 4.21019351609387e-02 
2.23750000000000e+00 1.16934407241977e-01 4.12619869614857e-02 
2.26250000000000e+00 1.15545890403470e-01 4.04511617071949e-02 
2.28750000000000e+00 1.14199251723098e-01 3.96723878246445e-02 
2.31250000000000e+00 1.12891906788779e-01 3.89281081096492e-02 
2.33750000000000e+00 1.11621896065061e-01 3.82190188489020e-02 
2.36250000000000e+00 1.10383962045161e-01 3.75409234745173e-02 
2.38750000000000e+00 1.09175815407597e-01 3.68868132311201e-02 
2.41250000000000e+00 1.07995017190827e-01 3.62541410040200e-02 
2.43750000000000e+00 1.06844162804457e-01 3.56408496174004e-02 
2.46250000000000e+00 1.05722648877083e-01 3.50493589852992e-02 
2.48750000000000e+00 1.04632943267176e-01 3.44845600469954e-02 
2.51250000000000e+00 1.03573946576450e-01 3.39503649470448e-02 
2.53750000000000e+00 1.02538639724485e-01 3.34479063732808e-02 
2.56250000000000e+00 1.01524765746980e-01 3.29740958822080e-02 
2.58750000000000e+00 1.00529955761151e-01 3.25232790468789e-02 
2.61250000000000e+00 9.95517065872976e-02 3.20875235196727e-02 
2.63750000000000e+00 9.85896305730990e-02 3.16607670551150e-02 
2.66250000000000e+00 9.76440982653206e-02 3.12411635556118e-02 
2.68750000000000e+00 9.67150714033059e-02 3.08307144040373e-02 
2.71250000000000e+00 9.58037611887819e-02 3.04342054344488e-02 
2.73750000000000e+00 9.49098963722197e-02 3.00574936911862e-02 
2.76250000000000e+00 9.40335504450596e-02 2.97027569882560e-02 
2.78750000000000e+00 9.31723381738977e-02 2.93679218773145e-02 
2.81250000000000e+00 9.23252323549971e-02 2.90478646337035e-02 
2.83750000000000e+00 9.14887032180247e-02 2.87383419218572e-02 
2.86250000000000e+00 9.06626990593774e-02 2.84351800493095e-02 
2.88750000000000e+00 8.98464174951821e-02 2.81372983185859e-02 
2.91250000000000e+00 8.90407979398153e-02 2.78466217964740e-02 
2.93750000000000e+00 8.82458497398132e-02 2.75666307992480e-02 
2.96250000000000e+00 8.74616811739271e-02 2.72994554575558e-02 
2.98750000000000e+00 8.66874978104130e-02 2.70453093355074e-02 
3.01250000000000e+00 8.59224921873223e-02 2.68022523921765e-02 
3.03750000000000e+00 8.51655391573813e-02 2.65673622927852e-02 
3.06250000000000e+00 8.44160214602466e-02 2.63376916993675e-02 
3.08750000000000e+00 8.36736895681321e-02 2.61110980548845e-02 
3.11250000000000e+00 8.29386036010967e-02 2.58865391252077e-02 
3.13750000000000e+00 8.22109803501632e-02 2.56652324163027e-02 
3.16250000000000e+00 8.14907383523955e-02 2.54499405326027e-02 
3.18750000000000e+00 8.07778810253502e-02 2.52418684890298e-02 
3.21250000000000e+00 8.00717755415409e-02 2.50404440007035e-02 
3.23750000000000e+00 7.93730130074283e-02 2.48440695678323e-02 
3.26250000000000e+00 7.86810894547154e-02 2.46503954727232e-02 
3.28750000000000e+00 7.79959299770337e-02 2.44570104268656e-02 
3.31250000000000e+00 7.73174161213897e-02 2.42631471768231e-02 
3.33750000000000e+00 7.66443680641426e-02 2.40691693608677e-02 
3.36250000000000e+00 7.59767863380338e-02 2.38751865710298e-02 
3.38750000000000e+00 7.53147700623856e-02 2.36813518930023e-02 
3.41250000000000e+00 7.46581576438615e-02 2.34878929641588e-02 
3.43750000000000e+00 7.40071872004096e-02 2.32948773841344e-02 
3.46250000000000e+00 7.33616607184363e-02 2.31019848506953e-02 
3.48750000000000e+00 7.27215457969785e-02 2.29086431166030e-02 
3.51250000000000e+00 7.20868149544745e-02 2.27148045819225e-02 
3.53750000000000e+00 7.14574984542912e-02 2.25207087663258e-02 
3.56250000000000e+00 7.08336030698175e-02 2.23269300028250e-02 
3.58750000000000e+00 7.02152006578502e-02 2.21350775102552e-02 
3.61250000000000e+00 6.96024505306089e-02 2.19473207411880e-02 
3.63750000000000e+00 6.89952008150673e-02 2.17640800456939e-02 
3.66250000000000e+00 6.83933716794325e-02 2.15837607817340e-02 
3.68750000000000e+00 6.77970220692898e-02 2.14052789933050e-02 
3.71250000000000e+00 6.72060645560802e-02 2.12287313339367e-02 
3.73750000000000e+00 6.66203956750778e-02 2.10544322134326e-02 
3.76250000000000e+00 6.60399104982291e-02 2.08821592545131e-02 
3.78750000000000e+00 6.54645685952308e-02 2.07112948599459e-02 
3.81250000000000e+00 6.48942712659812e-02 2.05416827401300e-02 
3.83750000000000e+00 6.43286800193116e-02 2.03735589292973e-02 
3.86250000000000e+00 6.37677097897515e-02 2.02069475873677e-02 
3.88750000000000e+00 6.32113166236877e-02 2.00417360898265e-02 
3.91250000000000e+00 6.26593725849096e-02 1.98781977095944e-02 
3.93750000000000e+00 6.21122886542510e-02 1.97167682651145e-02 
3.96250000000000e+00 6.15699880218561e-02 1.95577865819255e-02 
3.98750000000000e+00 6.10325126261395e-02 1.94014343516515e-02 
4.01250000000000e+00 6.04998815885223e-02 1.92477936824643e-02 
4.03750000000000e+00 5.99717903940601e-02 1.90969000206037e-02 
4.06250000000000e+00 5.94481405122838e-02 1.89487598596305e-02 
4.08750000000000e+00 5.89290446665031e-02 1.88032880893871e-02 
4.11250000000000e+00 5.84144189994916e-02 1.86604180340419e-02 
4.13750000000000e+00 5.79036899378051e-02 1.85200872300899e-02 
4.16250000000000e+00 5.73967943945597e-02 1.83820074321864e-02 
4.18750000000000e+00 5.68936699825884e-02 1.82460099147537e-02 
4.21250000000000e+00 5.63942277816088e-02 1.81121278573492e-02 
4.23750000000000e+00 5.58988369519626e-02 1.79804180760946e-02 
4.26250000000000e+00 5.54074059244321e-02 1.78510310825109e-02 
4.28750000000000e+00 5.49198543943623e-02 1.77240398173175e-02 
4.31250000000000e+00 5.44361064568862e-02 1.75994408275028e-02 
4.33750000000000e+00 5.39561496694428e-02 1.74772027372093e-02 
4.36250000000000e+00 5.34799124424588e-02 1.73573006298502e-02 
4.38750000000000e+00 5.30073216390987e-02 1.72396036245872e-02 
4.41250000000000e+00 5.25383092500803e-02 1.71239094245877e-02 
4.43750000000000e+00 5.20726687845150e-02 1.70100503424272e-02 
4.46250000000000e+00 5.16104499268152e-02 1.68979306901056e-02 
4.48750000000000e+00 5.11515968174219e-02 1.67875487195006e-02 
4.51250000000000e+00 5.06960556216344e-02 1.66786548003305e-02 
4.53750000000000e+00 5.02438157677067e-02 1.65708986051901e-02 
4.56250000000000e+00 4.97951408551670e-02 1.64641947983586e-02 
4.58750000000000e+00 4.93499887199128e-02 1.63586309456693e-02 
4.61250000000000e+00 4.89083178700965e-02 1.62541182700351e-02 
4.63750000000000e+00 4.84700768953252e-02 1.61504406053268e-02 
4.66250000000000e+00 4.80352513866929e-02 1.60473777708503e-02 
4.68750000000000e+00 4.76038163124642e-02 1.59448494197450e-02 
4.71250000000000e+00 4.71757476996187e-02 1.58428060583841e-02 
4.73750000000000e+00 4.67509271202555e-02 1.57411970516259e-02 
4.76250000000000e+00 4.63293357871139e-02 1.56402566581011e-02 
4.78750000000000e+00 4.59109405508954e-02 1.55404858214013e-02 
4.81250000000000e+00 4.54956955607318e-02 1.54421218072254e-02 
4.83750000000000e+00 4.50836559041392e-02 1.53451806795354e-02 
4.86250000000000e+00 4.46748063229609e-02 1.52497096224368e-02 
4.88750000000000e+00 4.42690978572195e-02 1.51557099995815e-02 
4.91250000000000e+00 4.38664826923019e-02 1.50629262755222e-02 
4.93750000000000e+00 4.34669280183761e-02 1.49709102903807e-02 
4.96250000000000e+00 4.30704163809314e-02 1.48794656255957e-02 
4.98750000000000e+00 4.26769258501457e-02 1.47886014523098e-02 
5.01250000000000e+00 4.22864327285248e-02 1.46983550267642e-02 
5.03750000000000e+00 4.18985292517008e-02 1.46089953645597e-02 
5.06250000000000e+00 4.15131751237880e-02 1.45207564164896e-02 
5.08750000000000e+00 4.11302980194758e-02 1.44336596549500e-02 
5.11250000000000e+00 4.07498507967854e-02 1.43474353532838e-02 
5.13750000000000e+00 4.03719060981096e-02 1.42617393026215e-02 
5.16250000000000e+00 3.99964499532620e-02 1.41764668194986e-02 
5.18750000000000e+00 3.96235155054596e-02 1.40916325166849e-02 
5.21250000000000e+00 3.92530918368617e-02 1.40072003786845e-02 
5.23750000000000e+00 3.88850857714565e-02 1.39231408237216e-02 
5.26250000000000e+00 3.85194845198227e-02 1.38394767027523e-02 
5.28750000000000e+00 3.81562753373122e-02 1.37562375242832e-02 
5.31250000000000e+00 3.77954472471952e-02 1.36734104304968e-02 
5.33750000000000e+00 3.74368521160404e-02 1.35909998452284e-02 
5.36250000000000e+00 3.70804782017889e-02 1.35089898356871e-02 
5.38750000000000e+00 3.67263136648712e-02 1.34273805778465e-02 
5.41250000000000e+00 3.63743471501644e-02 1.33461386697062e-02 
5.43750000000000e+00 3.60245707181991e-02 1.32652341093392e-02 
5.46250000000000e+00 3.56769743023163e-02 1.31847063096895e-02 
5.48750000000000e+00 3.53315459875609e-02 1.31045904546069e-02 
5.51250000000000e+00 3.49882739037497e-02 1.30248597046416e-02 
5.53750000000000e+00 3.46473413700623e-02 1.29454104243443e-02 
5.56250000000000e+00 3.43087391124107e-02 1.28661941210534e-02 
5.58750000000000e+00 3.39724578806691e-02 1.27872003605636e-02 
5.61250000000000e+00 3.36384882335514e-02 1.27084368962936e-02 
5.63750000000000e+00 3.33067582948289e-02 1.26299667453575e-02 
5.66250000000000e+00 3.29772568334584e-02 1.25518837986107e-02 
5.68750000000000e+00 3.26499699539084e-02 1.24742346849218e-02 
5.71250000000000e+00 3.23248838184147e-02 1.23970224704169e-02 
5.73750000000000e+00 3.20020460015827e-02 1.23201705727414e-02 
5.76250000000000e+00 3.16814456727134e-02 1.22435457338521e-02 
5.78750000000000e+00 3.13630754746071e-02 1.21670910765065e-02 
5.81250000000000e+00 3.10469275776320e-02 1.20907746143640e-02 
5.83750000000000e+00 3.07329392196293e-02 1.20145813902871e-02 
5.86250000000000e+00 3.04211051491549e-02 1.19385920278079e-02 
5.88750000000000e+00 3.01114157425119e-02 1.18628830131583e-02 
5.91250000000000e+00 2.98038474886370e-02 1.17874921629169e-02 
5.93750000000000e+00 2.94979793846140e-02 1.17125415997197e-02 
5.96250000000000e+00 2.91938031897899e-02 1.16380237633672e-02 
5.98750000000000e+00 2.88913107439354e-02 1.15639345988089e-02 
6.01250000000000e+00 2.85904938622904e-02 1.14901250648552e-02 
6.03750000000000e+00 2.82911223149007e-02 1.14163476768563e-02 
6.06250000000000e+00 2.79931629798280e-02 1.13424579613674e-02 
6.08750000000000e+00 2.76966239229427e-02 1.12684603689347e-02 
6.11250000000000e+00 2.74015143397894e-02 1.11944137916683e-02 
6.13750000000000e+00 2.71080814794948e-02 1.11203707692632e-02 
6.16250000000000e+00 2.68163276289601e-02 1.10463893493928e-02 
6.18750000000000e+00 2.65262549271313e-02 1.09724740889588e-02 
6.21250000000000e+00 2.62378648699191e-02 1.08985776977245e-02 
6.23750000000000e+00 2.59511656183021e-02 1.08246222771731e-02 
6.26250000000000e+00 2.56661627396190e-02 1.07506132084772e-02 
6.28750000000000e+00 2.53828602843351e-02 1.06765871454433e-02 
6.31250000000000e+00 2.51012619058649e-02 1.06025747998310e-02 
6.33750000000000e+00 2.48213698646832e-02 1.05285770379064e-02 
6.36250000000000e+00 2.45431878851055e-02 1.04545315536467e-02 
6.38750000000000e+00 2.42667217185073e-02 1.03804070493053e-02 
6.41250000000000e+00 2.39919767101093e-02 1.03060816415839e-02 
6.43750000000000e+00 2.37189728456332e-02 1.02313439123812e-02 
6.46250000000000e+00 2.34477267378183e-02 1.01561662237133e-02 
6.48750000000000e+00 2.31782521070737e-02 1.00806131056771e-02 
6.51250000000000e+00 2.29105620800403e-02 1.00047604836388e-02 
6.53750000000000e+00 2.26446641936260e-02 9.92871160149268e-03 
6.56250000000000e+00 2.23805661267202e-02 9.85249488921696e-03 
6.58750000000000e+00 2.21182762366656e-02 9.77610892363490e-03 
6.61250000000000e+00 2.18578023261843e-02 9.69952648681840e-03 
6.63750000000000e+00 2.15991877937099e-02 9.62268332418973e-03 
6.66250000000000e+00 2.13424431198126e-02 9.54558340339919e-03 
6.68750000000000e+00 2.10875776143271e-02 9.46825942632767e-03 
6.71250000000000e+00 2.08346000484557e-02 9.39077161919420e-03 
6.73750000000000e+00 2.05835145979367e-02 9.31322326270618e-03 
6.76250000000000e+00 2.03343245380024e-02 9.23568217984296e-03 
6.78750000000000e+00 2.00870323469616e-02 9.15817040074319e-03 
6.81250000000000e+00 1.98416401113421e-02 9.08074325289793e-03 
6.83750000000000e+00 1.95981438435097e-02 9.00345378097769e-03 
6.86250000000000e+00 1.93565434025651e-02 8.92627200063173e-03 
6.88750000000000e+00 1.91168396552820e-02 8.84917094516214e-03 
6.91250000000000e+00 1.88790333686068e-02 8.77213735556193e-03 
6.93750000000000e+00 1.86429102032441e-02 8.69518002859954e-03 
6.96250000000000e+00 1.84084761261857e-02 8.61825664190314e-03 
6.98750000000000e+00 1.81757371627141e-02 8.54137470316223e-03 
7.01250000000000e+00 1.79446978979906e-02 8.46455067237636e-03 
7.03750000000000e+00 1.77155043663933e-02 8.38776298674591e-03 
7.06250000000000e+00 1.74881589268783e-02 8.31103988450988e-03 
7.08750000000000e+00 1.72626639194285e-02 8.23439920765068e-03 
7.11250000000000e+00 1.70390212612195e-02 8.15776250634961e-03 
7.13750000000000e+00 1.68171778183621e-02 8.08102239429076e-03 
7.16250000000000e+00 1.65971430871539e-02 8.00418854132806e-03 
7.18750000000000e+00 1.63789236950032e-02 7.92732266261829e-03 
7.21250000000000e+00 1.61625257604848e-02 7.85047615467817e-03 
7.23750000000000e+00 1.59479514769681e-02 7.77369415139101e-03 
7.26250000000000e+00 1.57352050304897e-02 7.69695478528759e-03 
7.28750000000000e+00 1.55242914892921e-02 7.62024253276200e-03 
7.31250000000000e+00 1.53152153903517e-02 7.54354068920493e-03 
7.33750000000000e+00 1.51079850601415e-02 7.46679959553298e-03 
7.36250000000000e+00 1.49026077409720e-02 7.39000874912127e-03 
7.38750000000000e+00 1.46990899904517e-02 7.31319079106349e-03 
7.41250000000000e+00 1.44974377825945e-02 7.23645666542611e-03 
7.43750000000000e+00 1.42976563682150e-02 7.16000680827984e-03 
7.46250000000000e+00 1.40997401592391e-02 7.08395677113486e-03 
7.48750000000000e+00 1.39036830117676e-02 7.00832381468094e-03 
7.51250000000000e+00 1.37094785241013e-02 6.93311423244477e-03 
7.53750000000000e+00 1.35171203311985e-02 6.85832976810455e-03 
7.56250000000000e+00 1.33266018368455e-02 6.78397037963815e-03 
7.58750000000000e+00 1.31379163750652e-02 6.71004033606835e-03 
7.61250000000000e+00 1.29510570271547e-02 6.63654833149025e-03 
7.63750000000000e+00 1.27660165473249e-02 6.56350103335714e-03 
7.66250000000000e+00 1.25827873492201e-02 6.49090040040378e-03 
7.68750000000000e+00 1.24013619989390e-02 6.41874981640710e-03 
7.71250000000000e+00 1.22217328338027e-02 6.34705841191061e-03 
7.73750000000000e+00 1.20439864076160e-02 6.27580479237934e-03 
7.76250000000000e+00 1.18681129913953e-02 6.20500081722965e-03 
