Energy(eV)           EEDF(eV^-(3/2))      Anisotropy(eV^-(3/2))
1.04166666666667e-02 1.74024120057054e-01 -1.81682912253296e-03 
3.12500000000000e-02 1.74047305204458e-01 -6.63323143706673e-04 
5.20833333333333e-02 1.74066803728519e-01 1.42486810936739e-05 
7.29166666666667e-02 1.74082808398813e-01 4.32245104066664e-04 
9.37500000000000e-02 1.74094868168543e-01 7.73890871268001e-04 
1.14583333333333e-01 1.74102771276001e-01 1.08185259085056e-03 
1.35416666666667e-01 1.74106307229884e-01 1.77523631777053e-03 
1.56250000000000e-01 1.74095255344902e-01 2.75292830718388e-03 
1.77083333333333e-01 1.74069711967090e-01 3.30361982757078e-03 
1.97916666666667e-01 1.74037868565671e-01 3.59794708595787e-03 
2.18750000000000e-01 1.73997381355443e-01 3.91649828190313e-03 
2.39583333333333e-01 1.73949443239375e-01 4.15351133087361e-03 
2.60416666666667e-01 1.73894975879918e-01 5.04170807127882e-03 
2.81250000000000e-01 1.73809636640217e-01 6.53853055556361e-03 
3.02083333333333e-01 1.73692859631687e-01 7.65171261719299e-03 
3.22916666666667e-01 1.73555885521353e-01 8.30487912568450e-03 
3.43750000000000e-01 1.73392581648869e-01 8.48392141693896e-03 
3.64583333333333e-01 1.73238060447185e-01 8.86638460340208e-03 
3.85416666666667e-01 1.73059975263307e-01 1.01798519537236e-02 
4.06250000000000e-01 1.72838556004135e-01 1.16273219052818e-02 
4.27083333333333e-01 1.72586094809036e-01 1.25239634348106e-02 
4.47916666666667e-01 1.72314062775884e-01 1.26773572787917e-02 
4.68750000000000e-01 1.72004906898564e-01 1.22572333935855e-02 
4.89583333333333e-01 1.71742625804866e-01 1.28914144652917e-02 
5.10416666666667e-01 1.71430312000726e-01 1.48201022100004e-02 
5.31250000000000e-01 1.71067697010662e-01 1.62172177042566e-02 
5.52083333333333e-01 1.70682644249326e-01 1.66890718315722e-02 
5.72916666666667e-01 1.70259018633920e-01 1.62531311394580e-02 
5.93750000000000e-01 1.69848282490318e-01 1.56589602979352e-02 
6.14583333333333e-01 1.69483860301999e-01 1.59837181397937e-02 
6.35416666666667e-01 1.69108710269906e-01 1.68008887883422e-02 
6.56250000000000e-01 1.68728290144031e-01 1.73913364570226e-02 
6.77083333333333e-01 1.68349786220645e-01 1.70226558271512e-02 
6.97916666666667e-01 1.67907629634670e-01 1.59284611906733e-02 
7.18750000000000e-01 1.67592102959499e-01 1.54694095619804e-02 
7.39583333333333e-01 1.67275077992522e-01 1.61874751561808e-02 
7.60416666666667e-01 1.66943421244198e-01 1.68282049363189e-02 
7.81250000000000e-01 1.66603521979960e-01 1.71951931103614e-02 
8.02083333333333e-01 1.66243627268281e-01 1.70443181264656e-02 
8.22916666666667e-01 1.65858861758825e-01 1.66924237765976e-02 
8.43750000000000e-01 1.65490352807930e-01 1.68218802783466e-02 
8.64583333333333e-01 1.65084069043715e-01 1.73016636416961e-02 
8.85416666666667e-01 1.64637931060299e-01 1.77180312346492e-02 
9.06250000000000e-01 1.64154436863042e-01 1.76784859422179e-02 
9.27083333333333e-01 1.63622699804771e-01 1.73085605594536e-02 
9.47916666666667e-01 1.63143543997097e-01 1.72990200680664e-02 
9.68750000000000e-01 1.62646635004836e-01 1.76894578947720e-02 
9.89583333333333e-01 1.62130907691371e-01 1.80429010771751e-02 
1.01041666666667e+00 1.61599035454976e-01 1.82990951201686e-02 
1.03125000000000e+00 1.61051662480529e-01 1.83854285753796e-02 
1.05208333333333e+00 1.60485403109645e-01 1.83860170433821e-02 
1.07291666666667e+00 1.59930285517847e-01 1.85405021232661e-02 
1.09375000000000e+00 1.59360968890672e-01 1.87957475005634e-02 
1.11458333333333e+00 1.58778389014591e-01 1.90234947372633e-02 
1.13541666666667e+00 1.58183043867271e-01 1.91367830194103e-02 
1.15625000000000e+00 1.57565043736049e-01 1.91535529770415e-02 
1.17708333333333e+00 1.56956843094978e-01 1.92801788808581e-02 
1.19791666666667e+00 1.56335270004192e-01 1.94977084825654e-02 
1.21875000000000e+00 1.55703191007161e-01 1.97009628107458e-02 
1.23958333333333e+00 1.55064367709702e-01 1.98659019723059e-02 
1.26041666666667e+00 1.54415566346825e-01 1.99964111608309e-02 
1.28125000000000e+00 1.53767757586043e-01 2.01587237813740e-02 
1.30208333333333e+00 1.53113437712004e-01 2.03456286344697e-02 
1.32291666666667e+00 1.52454528744666e-01 2.05264585367602e-02 
1.34375000000000e+00 1.51792202903078e-01 2.06867482795809e-02 
1.36458333333333e+00 1.51124188362770e-01 2.08272915653196e-02 
1.38541666666667e+00 1.50457699146469e-01 2.09885085753134e-02 
1.40625000000000e+00 1.49787890308096e-01 2.11676322208585e-02 
1.42708333333333e+00 1.49114915878109e-01 2.13425204164509e-02 
1.44791666666667e+00 1.48438999023595e-01 2.15057357484034e-02 
1.46875000000000e+00 1.47759588198015e-01 2.16567034160369e-02 
1.48958333333333e+00 1.47079263828934e-01 2.18076108971963e-02 
1.51041666666667e+00 1.46396711828391e-01 2.19589491688133e-02 
1.53125000000000e+00 1.45712108189535e-01 2.21054265158854e-02 
1.55208333333333e+00 1.45025504007687e-01 2.22455298821859e-02 
1.57291666666667e+00 1.44337134846137e-01 2.23804956169760e-02 
1.59375000000000e+00 1.43647644212745e-01 2.25138519320530e-02 
1.61458333333333e+00 1.42956750452911e-01 2.26449318405018e-02 
1.63541666666667e+00 1.42264614863615e-01 2.27708811632021e-02 
1.65625000000000e+00 1.41571176884572e-01 2.28914379260694e-02 
1.67708333333333e+00 1.40877100398311e-01 2.30093925858469e-02 
1.69791666666667e+00 1.40182283300826e-01 2.31252964581847e-02 
1.71875000000000e+00 1.39487167754389e-01 2.32377568839854e-02 
1.73958333333333e+00 1.38792471140344e-01 2.33464632360443e-02 
1.76041666666667e+00 1.38098344480272e-01 2.34514729364571e-02 
1.78125000000000e+00 1.37404932573024e-01 2.35529069637425e-02 
1.80208333333333e+00 1.36712375343699e-01 2.36507617685262e-02 
1.82291666666667e+00 1.36020815658089e-01 2.37448171094993e-02 
1.84375000000000e+00 1.35330403559245e-01 2.38348402691692e-02 
1.86458333333333e+00 1.34641290138879e-01 2.39208250002519e-02 
1.88541666666667e+00 1.33953621246562e-01 2.40029080615641e-02 
1.90625000000000e+00 1.33267536360013e-01 2.40812702489610e-02 
1.92708333333333e+00 1.32582386641779e-01 2.41559845369611e-02 
1.94791666666667e+00 1.31898100559635e-01 2.42271201378765e-02 
1.96875000000000e+00 1.31214798402524e-01 2.42947322853254e-02 
1.98958333333333e+00 1.30532591532597e-01 2.43588685184111e-02 
2.01041666666667e+00 1.29851594283173e-01 2.44196109314063e-02 
2.03125000000000e+00 1.29171917839121e-01 2.44770156838044e-02 
2.05208333333333e+00 1.28493671378451e-01 2.45310767422085e-02 
2.07291666666667e+00 1.27816963169410e-01 2.45818378631714e-02 
2.09375000000000e+00 1.27141897437861e-01 2.46294061342020e-02 
2.11458333333333e+00 1.26468368887083e-01 2.46738874475882e-02 
2.13541666666667e+00 1.25795650351805e-01 2.47153008473466e-02 
2.15625000000000e+00 1.25123833745053e-01 2.47536885585933e-02 
2.17708333333333e+00 1.24453008525359e-01 2.47891107275733e-02 
2.19791666666667e+00 1.23783261786072e-01 2.48215952784875e-02 
2.21875000000000e+00 1.23114650930156e-01 2.48511149592702e-02 
2.23958333333333e+00 1.22447219706179e-01 2.48776318171402e-02 
2.26041666666667e+00 1.21781055837150e-01 2.49011371699666e-02 
2.28125000000000e+00 1.21116245307092e-01 2.49216550567875e-02 
2.30208333333333e+00 1.20452872233873e-01 2.49392550102679e-02 
2.32291666666667e+00 1.19791036818843e-01 2.49540173765421e-02 
2.34375000000000e+00 1.19130830431531e-01 2.49659826337320e-02 
2.36458333333333e+00 1.18472330333540e-01 2.49751827373184e-02 
2.38541666666667e+00 1.17815611867067e-01 2.49816856034877e-02 
2.40625000000000e+00 1.17160747308774e-01 2.49855199591969e-02 
2.42708333333333e+00 1.16509518231954e-01 2.49867271315939e-02 
2.44791666666667e+00 1.15862421302414e-01 2.49853796003100e-02 
2.46875000000000e+00 1.15219523114342e-01 2.49815358199231e-02 
2.48958333333333e+00 1.14580887448492e-01 2.49752581489137e-02 
2.51041666666667e+00 1.13946575159539e-01 2.49666709757479e-02 
2.53125000000000e+00 1.13314428158465e-01 2.49558250389905e-02 
2.55208333333333e+00 1.12684504814403e-01 2.49426605450381e-02 
2.57291666666667e+00 1.12056862821349e-01 2.49272166855068e-02 
2.59375000000000e+00 1.11431557449848e-01 2.49095736645944e-02 
2.61458333333333e+00 1.10808661415604e-01 2.48898043589316e-02 
2.63541666666667e+00 1.10188305894662e-01 2.48679562787587e-02 
2.65625000000000e+00 1.09570539783914e-01 2.48440687136263e-02 
2.67708333333333e+00 1.08955410489181e-01 2.48181896082615e-02 
2.69791666666667e+00 1.08342963482307e-01 2.47903821089126e-02 
2.71875000000000e+00 1.07733242205429e-01 2.47607304333490e-02 
2.73958333333333e+00 1.07126287249706e-01 2.47293363921168e-02 
2.76041666666667e+00 1.06522135872367e-01 2.46962861644995e-02 
2.78125000000000e+00 1.05920823228446e-01 2.46616264690065e-02 
2.80208333333333e+00 1.05322383441632e-01 2.46253806256590e-02 
2.82291666666667e+00 1.04726225478840e-01 2.45875796076269e-02 
2.84375000000000e+00 1.04131969484212e-01 2.45481988866484e-02 
2.86458333333333e+00 1.03539653276134e-01 2.45071703635480e-02 
2.88541666666667e+00 1.02949314998907e-01 2.44644557932126e-02 
2.90625000000000e+00 1.02360992821545e-01 2.44200742679451e-02 
2.92708333333333e+00 1.01774734179299e-01 2.43740617431334e-02 
2.94791666666667e+00 1.01190577674284e-01 2.43264318641661e-02 
2.96875000000000e+00 1.00608559007389e-01 2.42772041991405e-02 
2.98958333333333e+00 1.00028712771128e-01 2.42264261573383e-02 
3.01041666666667e+00 9.94510719673523e-02 2.41741551437043e-02 
3.03125000000000e+00 9.88756377446470e-02 2.41204343081866e-02 
3.05208333333333e+00 9.83024379531609e-02 2.40653673056403e-02 
3.07291666666667e+00 9.77314984175235e-02 2.40091402268581e-02 
3.09375000000000e+00 9.71628405884775e-02 2.39518618328787e-02 
3.11458333333333e+00 9.65964830443204e-02 2.38935669185049e-02 
3.13541666666667e+00 9.60324370990344e-02 2.38342914900223e-02 
3.15625000000000e+00 9.54707214838784e-02 2.37740612190691e-02 
3.17708333333333e+00 9.49113542950762e-02 2.37129094771321e-02 
3.19791666666667e+00 9.43543524387496e-02 2.36508937309413e-02 
3.21875000000000e+00 9.38001480154643e-02 2.35880720967276e-02 
3.23958333333333e+00 9.32493764317628e-02 2.35244811993280e-02 
3.26041666666667e+00 9.27020469590553e-02 2.34600982930656e-02 
3.28125000000000e+00 9.21581692884003e-02 2.33948318353948e-02 
3.30208333333333e+00 9.16177544187477e-02 2.33286674445418e-02 
3.32291666666667e+00 9.10798179711312e-02 2.32617011461208e-02 
3.34375000000000e+00 9.05437133900535e-02 2.31939503900805e-02 
3.36458333333333e+00 9.00094580441226e-02 2.31254065686320e-02 
3.38541666666667e+00 8.94770685921393e-02 2.30560936584410e-02 
3.40625000000000e+00 8.89465612203576e-02 2.29860344327228e-02 
3.42708333333333e+00 8.84178439484000e-02 2.29152723115514e-02 
3.44791666666667e+00 8.78909036654749e-02 2.28438779885884e-02 
3.46875000000000e+00 8.73657525503957e-02 2.27719569189846e-02 
3.48958333333333e+00 8.68424008052244e-02 2.26995779032261e-02 
3.51041666666667e+00 8.63208579721580e-02 2.26267627640011e-02 
3.53125000000000e+00 8.58011237776444e-02 2.25535190074361e-02 
3.55208333333333e+00 8.52832074848249e-02 2.24798429536762e-02 
3.57291666666667e+00 8.47671184433120e-02 2.24057455279370e-02 
3.59375000000000e+00 8.42528653888590e-02 2.23312579455861e-02 
3.61458333333333e+00 8.37404523493702e-02 2.22564144083621e-02 
3.63541666666667e+00 8.32298713362735e-02 2.21812892564805e-02 
3.65625000000000e+00 8.27211286167719e-02 2.21059620444472e-02 
3.67708333333333e+00 8.22142276567496e-02 2.20304273999066e-02 
3.69791666666667e+00 8.17091732430623e-02 2.19546601787798e-02 
3.71875000000000e+00 8.12057568806722e-02 2.18786791382591e-02 
3.73958333333333e+00 8.07036660553930e-02 2.18024757307538e-02 
3.76041666666667e+00 8.02029098053473e-02 2.17259986142282e-02 
3.78125000000000e+00 7.97034977384687e-02 2.16492439347256e-02 
3.80208333333333e+00 7.92054391055377e-02 2.15722649561963e-02 
3.82291666666667e+00 7.87088167351629e-02 2.14952612655195e-02 
3.84375000000000e+00 7.82136791217848e-02 2.14185436759219e-02 
3.86458333333333e+00 7.77200171283890e-02 2.13423092698387e-02 
3.88541666666667e+00 7.72278204386321e-02 2.12666164486725e-02 
3.90625000000000e+00 7.67370780525026e-02 2.11914750704199e-02 
3.92708333333333e+00 7.62476878545140e-02 2.11169182533670e-02 
3.94791666666667e+00 7.57596154458421e-02 2.10430271318325e-02 
3.96875000000000e+00 7.52728466820167e-02 2.09698771479799e-02 
3.98958333333333e+00 7.47873663598822e-02 2.08974825149448e-02 
4.01041666666667e+00 7.43031595827755e-02 2.08256479600468e-02 
4.03125000000000e+00 7.38205813945354e-02 2.07541020219006e-02 
4.05208333333333e+00 7.33396275618015e-02 2.06829154591228e-02 
4.07291666666667e+00 7.28602875850608e-02 2.06121761696718e-02 
4.09375000000000e+00 7.23825515141182e-02 2.05418734689292e-02 
4.11458333333333e+00 7.19062335836973e-02 2.04720412041758e-02 
4.13541666666667e+00 7.14306240449137e-02 2.04026590485164e-02 
4.15625000000000e+00 7.09557212240744e-02 2.03335217105928e-02 
4.17708333333333e+00 7.04815273262286e-02 2.02645443474568e-02 
4.19791666666667e+00 7.00080430318930e-02 2.01957125841864e-02 
4.21875000000000e+00 6.95356112810863e-02 2.01270055445051e-02 
4.23958333333333e+00 6.90647443258719e-02 2.00584428023902e-02 
4.26041666666667e+00 6.85954372018867e-02 1.99900793519469e-02 
4.28125000000000e+00 6.81276854027944e-02 1.99219259103800e-02 
4.30208333333333e+00 6.76614840417673e-02 1.98539665070499e-02 
4.32291666666667e+00 6.71968354941778e-02 1.97862031730634e-02 
4.34375000000000e+00 6.67337387812451e-02 1.97187453839255e-02 
4.36458333333333e+00 6.62721848811490e-02 1.96517102333323e-02 
4.38541666666667e+00 6.58121631575538e-02 1.95851293134077e-02 
4.40625000000000e+00 6.53536630817427e-02 1.95188788496363e-02 
4.42708333333333e+00 6.48966625726349e-02 1.94527432026723e-02 
4.44791666666667e+00 6.44411568819293e-02 1.93866487369206e-02 
4.46875000000000e+00 6.39871447243431e-02 1.93206202924730e-02 
4.48958333333333e+00 6.35346248392461e-02 1.92546630287143e-02 
4.51041666666667e+00 6.30835958409828e-02 1.91888294183329e-02 
4.53125000000000e+00 6.26339067559656e-02 1.91232854804548e-02 
4.55208333333333e+00 6.21855499112290e-02 1.90581857977880e-02 
4.57291666666667e+00 6.17385146829202e-02 1.89935909131031e-02 
4.59375000000000e+00 6.12927903436189e-02 1.89294906551516e-02 
4.61458333333333e+00 6.08483669585602e-02 1.88658049917553e-02 
4.63541666666667e+00 6.04052387191890e-02 1.88022948364165e-02 
4.65625000000000e+00 5.99634080629295e-02 1.87386596869571e-02 
4.67708333333333e+00 5.95228823676314e-02 1.86747542792220e-02 
4.69791666666667e+00 5.90836697624433e-02 1.86105257905923e-02 
4.71875000000000e+00 5.86457746138617e-02 1.85458313320475e-02 
4.73958333333333e+00 5.82092037027231e-02 1.84804831643067e-02 
4.76041666666667e+00 5.77739761650499e-02 1.84143874685469e-02 
4.78125000000000e+00 5.73401115948291e-02 1.83475432856094e-02 
4.80208333333333e+00 5.69076291156365e-02 1.82799565432701e-02 
4.82291666666667e+00 5.64765584997605e-02 1.82116258172653e-02 
4.84375000000000e+00 5.60469255698551e-02 1.81425905574129e-02 
4.86458333333333e+00 5.56187475047915e-02 1.80729149287054e-02 
4.88541666666667e+00 5.51920403746099e-02 1.80026363629553e-02 
4.90625000000000e+00 5.47668198252572e-02 1.79317506323434e-02 
4.92708333333333e+00 5.43431161466417e-02 1.78602582277506e-02 
4.94791666666667e+00 5.39209483137887e-02 1.77882019700388e-02 
4.96875000000000e+00 5.35003305162514e-02 1.77156108643679e-02 
4.98958333333333e+00 5.30812768709035e-02 1.76424959571059e-02 
5.01041666666667e+00 5.26638010649816e-02 1.75689506530728e-02 
5.03125000000000e+00 5.22473101164320e-02 1.74951611179557e-02 
5.05208333333333e+00 5.18318162572725e-02 1.74210984620805e-02 
5.07291666666667e+00 5.14173331259314e-02 1.73467397308971e-02 
5.09375000000000e+00 5.10038741364862e-02 1.72720936157533e-02 
5.11458333333333e+00 5.05915396671657e-02 1.71971773821397e-02 
5.13541666666667e+00 5.01806880733594e-02 1.71220325310109e-02 
5.15625000000000e+00 4.97713258463686e-02 1.70467605445981e-02 
5.17708333333333e+00 4.93634581111076e-02 1.69713941928430e-02 
5.19791666666667e+00 4.89570897808770e-02 1.68959300272990e-02 
5.21875000000000e+00 4.85521687615281e-02 1.68204122324061e-02 
5.23958333333333e+00 4.81486128755160e-02 1.67449460526476e-02 
5.26041666666667e+00 4.77464237012473e-02 1.66695780742891e-02 
5.28125000000000e+00 4.73456028779917e-02 1.65943064981575e-02 
5.30208333333333e+00 4.69461520577840e-02 1.65191200298895e-02 
5.32291666666667e+00 4.65479042565796e-02 1.64440157382976e-02 
5.34375000000000e+00 4.61507512681317e-02 1.63689784115294e-02 
5.36458333333333e+00 4.57546982817074e-02 1.62939921773551e-02 
5.38541666666667e+00 4.53597506285295e-02 1.62190575407282e-02 
5.40625000000000e+00 4.49659134605798e-02 1.61441203158080e-02 
5.42708333333333e+00 4.45731964602266e-02 1.60690915565820e-02 
5.44791666666667e+00 4.41816100171826e-02 1.59939651515035e-02 
5.46875000000000e+00 4.37911626222954e-02 1.59187642252032e-02 
5.48958333333333e+00 4.34018626726941e-02 1.58434873883222e-02 
5.51041666666667e+00 4.30137185548386e-02 1.57681032461282e-02 
5.53125000000000e+00 4.26271452901295e-02 1.56924719703432e-02 
5.55208333333333e+00 4.22421525126594e-02 1.56165376421853e-02 
5.57291666666667e+00 4.18587510744260e-02 1.55402847110571e-02 
5.59375000000000e+00 4.14769514164388e-02 1.54637293891893e-02 
5.61458333333333e+00 4.10967371749903e-02 1.53869234700135e-02 
5.63541666666667e+00 4.07180114108716e-02 1.53100264195686e-02 
5.65625000000000e+00 4.03407781805284e-02 1.52332060969325e-02 
5.67708333333333e+00 3.99650379120701e-02 1.51565285766981e-02 
5.69791666666667e+00 3.95907911250885e-02 1.50799954378229e-02 
5.71875000000000e+00 3.92180896450908e-02 1.50034886303118e-02 
5.73958333333333e+00 3.88470160034576e-02 1.49267211066989e-02 
5.76041666666667e+00 3.84775835804705e-02 1.48494887250596e-02 
5.78125000000000e+00 3.81098078964192e-02 1.47717565763991e-02 
5.80208333333333e+00 3.77437040506102e-02 1.46934823273821e-02 
5.82291666666667e+00 3.73792161230185e-02 1.46146691461824e-02 
5.84375000000000e+00 3.70163119786397e-02 1.45354637148784e-02 
5.86458333333333e+00 3.66550036950323e-02 1.44559644601485e-02 
5.88541666666667e+00 3.62953027928939e-02 1.43761737226071e-02 
5.90625000000000e+00 3.59372207564027e-02 1.42961472770903e-02 
5.92708333333333e+00 3.55800802449370e-02 1.42160969587864e-02 
5.94791666666667e+00 3.52237229718422e-02 1.41360696968680e-02 
5.96875000000000e+00 3.48681620334678e-02 1.40560767644183e-02 
5.98958333333333e+00 3.45134100027349e-02 1.39761328208380e-02 
6.01041666666667e+00 3.41594791764635e-02 1.38960304918172e-02 
6.03125000000000e+00 3.38063991536328e-02 1.38153627542220e-02 
6.05208333333333e+00 3.34542026080810e-02 1.37339648953828e-02 
6.07291666666667e+00 3.31029214658270e-02 1.36518902490656e-02 
6.09375000000000e+00 3.27525865980219e-02 1.35691968246189e-02 
6.11458333333333e+00 3.24033416735991e-02 1.34860165828360e-02 
6.13541666666667e+00 3.20556634992824e-02 1.34024684045708e-02 
6.15625000000000e+00 3.17095664444226e-02 1.33186349501173e-02 
6.17708333333333e+00 3.13650656936798e-02 1.32345086700583e-02 
6.19791666666667e+00 3.10221759927386e-02 1.31500588527877e-02 
6.21875000000000e+00 3.06809158317340e-02 1.30651504103770e-02 
6.23958333333333e+00 3.03413094931446e-02 1.29796833173493e-02 
6.26041666666667e+00 3.00033791148840e-02 1.28937039198352e-02 
6.28125000000000e+00 2.96671442895461e-02 1.28072770060273e-02 
6.30208333333333e+00 2.93326239367869e-02 1.27204515989295e-02 
6.32291666666667e+00 2.89998345875379e-02 1.26332277615649e-02 
6.34375000000000e+00 2.86687949366301e-02 1.25455026595523e-02 
6.36458333333333e+00 2.83395277248711e-02 1.24572109584631e-02 
6.38541666666667e+00 2.80120555930228e-02 1.23683704121141e-02 
6.40625000000000e+00 2.76864004349903e-02 1.22788016263366e-02 
6.42708333333333e+00 2.73626020303665e-02 1.21881378097352e-02 
6.44791666666667e+00 2.70407038769087e-02 1.20962419481325e-02 
6.46875000000000e+00 2.67207459050867e-02 1.20031709944416e-02 
