Energy(eV)           EEDF(eV^-(3/2))      Anisotropy(eV^-(3/2))
1.25000000000000e-02 1.68442827007984e-01 -1.10429001968301e-03 
3.75000000000000e-02 1.68461269109666e-01 -3.92774093780935e-04 
6.25000000000000e-02 1.68476484206336e-01 1.17284880749318e-04 
8.75000000000000e-02 1.68487978973684e-01 4.80249304546773e-04 
1.12500000000000e-01 1.68495137988480e-01 8.08243264120679e-04 
1.37500000000000e-01 1.68497606381753e-01 1.31366911810284e-03 
1.62500000000000e-01 1.68489780105774e-01 1.94779731872666e-03 
1.87500000000000e-01 1.68471277315866e-01 2.48072957688567e-03 
2.12500000000000e-01 1.68442619315882e-01 2.94045145712654e-03 
2.37500000000000e-01 1.68403959128639e-01 3.28060231393785e-03 
2.62500000000000e-01 1.68358223168489e-01 4.48532707842967e-03 
2.87500000000000e-01 1.68269855278111e-01 6.52249524134185e-03 
3.12500000000000e-01 1.68138283169933e-01 7.63225245764036e-03 
3.37500000000000e-01 1.67989868925293e-01 7.94426861437992e-03 
3.62500000000000e-01 1.67834439880910e-01 8.21066602847369e-03 
3.87500000000000e-01 1.67669054626485e-01 9.26541317322320e-03 
4.12500000000000e-01 1.67455634924620e-01 1.15164999235154e-02 
4.37500000000000e-01 1.67177146305058e-01 1.26787752739928e-02 
4.62500000000000e-01 1.66839825237676e-01 1.21271249870700e-02 
4.87500000000000e-01 1.66576759176791e-01 1.17324145100876e-02 
5.12500000000000e-01 1.66301570363205e-01 1.24493964596682e-02 
5.37500000000000e-01 1.65994614735793e-01 1.36951330761615e-02 
5.62500000000000e-01 1.65652189863819e-01 1.38845824017932e-02 
5.87500000000000e-01 1.65259159347096e-01 1.30792584853011e-02 
6.12500000000000e-01 1.64955140173446e-01 1.32685408085242e-02 
6.37500000000000e-01 1.64625540172913e-01 1.47566574056549e-02 
6.62500000000000e-01 1.64268588752453e-01 1.58008409178198e-02 
6.87500000000000e-01 1.63911208191815e-01 1.57764484085994e-02 
7.12500000000000e-01 1.63522765912576e-01 1.53021392943198e-02 
7.37500000000000e-01 1.63201280114054e-01 1.53130839379875e-02 
7.62500000000000e-01 1.62869289216845e-01 1.59122623450672e-02 
7.87500000000000e-01 1.62524490767579e-01 1.58216135379494e-02 
8.12500000000000e-01 1.62117258977899e-01 1.50911769012608e-02 
8.37500000000000e-01 1.61783406674971e-01 1.49441184575523e-02 
8.62500000000000e-01 1.61408934962682e-01 1.55427884125278e-02 
8.87500000000000e-01 1.60990756376930e-01 1.60822163537522e-02 
9.12500000000000e-01 1.60531065783213e-01 1.64055237681631e-02 
9.37500000000000e-01 1.60043678280242e-01 1.65907950183497e-02 
9.62500000000000e-01 1.59558403379113e-01 1.69307916469573e-02 
9.87500000000000e-01 1.59050975290449e-01 1.74115676118935e-02 
1.01250000000000e+00 1.58521438788783e-01 1.77111228375763e-02 
1.03750000000000e+00 1.57963412319641e-01 1.78327552431883e-02 
1.06250000000000e+00 1.57413243074890e-01 1.80906699554258e-02 
1.08750000000000e+00 1.56844089178522e-01 1.84748174634117e-02 
1.11250000000000e+00 1.56256137379947e-01 1.88253939149702e-02 
1.13750000000000e+00 1.55650812196263e-01 1.90843559325850e-02 
1.16250000000000e+00 1.55022037096989e-01 1.92842420026140e-02 
1.18750000000000e+00 1.54389456839973e-01 1.95540533088041e-02 
1.21250000000000e+00 1.53738805729257e-01 1.98649212000334e-02 
1.23750000000000e+00 1.53077414579511e-01 2.01303661635837e-02 
1.26250000000000e+00 1.52402474105538e-01 2.03637301109463e-02 
1.28750000000000e+00 1.51723739264767e-01 2.06229398237800e-02 
1.31250000000000e+00 1.51034665029737e-01 2.08986925876426e-02 
1.33750000000000e+00 1.50338976223721e-01 2.11455255757629e-02 
1.36250000000000e+00 1.49634191073320e-01 2.13685117764520e-02 
1.38750000000000e+00 1.48928527435505e-01 2.16130473565931e-02 
1.41250000000000e+00 1.48216584816640e-01 2.18745894225099e-02 
1.43750000000000e+00 1.47498671477541e-01 2.21199387392717e-02 
1.46250000000000e+00 1.46773900321715e-01 2.23478698004648e-02 
1.48750000000000e+00 1.46046213807101e-01 2.25771668067376e-02 
1.51250000000000e+00 1.45313533199116e-01 2.28076759626485e-02 
1.53750000000000e+00 1.44576130428786e-01 2.30281137308869e-02 
1.56250000000000e+00 1.43833673811194e-01 2.32387229412321e-02 
1.58750000000000e+00 1.43088048364922e-01 2.34473197061554e-02 
1.61250000000000e+00 1.42338430892154e-01 2.36538618271685e-02 
1.63750000000000e+00 1.41585068294552e-01 2.38533400895787e-02 
1.66250000000000e+00 1.40827942565837e-01 2.40458022429423e-02 
1.68750000000000e+00 1.40067925495987e-01 2.42343761182882e-02 
1.71250000000000e+00 1.39304815366721e-01 2.44189399383255e-02 
1.73750000000000e+00 1.38539552510699e-01 2.45980753588398e-02 
1.76250000000000e+00 1.37772365583597e-01 2.47718085772917e-02 
1.78750000000000e+00 1.37003474553536e-01 2.49402971943935e-02 
1.81250000000000e+00 1.36233092912602e-01 2.51035111255634e-02 
1.83750000000000e+00 1.35461442179688e-01 2.52612091026662e-02 
1.86250000000000e+00 1.34688744845100e-01 2.54132568404998e-02 
1.88750000000000e+00 1.33915221364556e-01 2.55597403420531e-02 
1.91250000000000e+00 1.33141085148915e-01 2.57008743373177e-02 
1.93750000000000e+00 1.32365789748023e-01 2.58367675728275e-02 
1.96250000000000e+00 1.31589525130809e-01 2.59674303902067e-02 
1.98750000000000e+00 1.30812450436427e-01 2.60926090195409e-02 
2.01250000000000e+00 1.30034743466160e-01 2.62121800321838e-02 
2.03750000000000e+00 1.29256607381703e-01 2.63262345372534e-02 
2.06250000000000e+00 1.28478233682850e-01 2.64348287463917e-02 
2.08750000000000e+00 1.27699811837602e-01 2.65380278151805e-02 
2.11250000000000e+00 1.26921525558005e-01 2.66358604696623e-02 
2.13750000000000e+00 1.26142546312248e-01 2.67280839255046e-02 
2.16250000000000e+00 1.25363057608443e-01 2.68146688076220e-02 
2.18750000000000e+00 1.24583238627054e-01 2.68957045287422e-02 
2.21250000000000e+00 1.23803264896768e-01 2.69710976599901e-02 
2.23750000000000e+00 1.23022696915945e-01 2.70404681666193e-02 
2.26250000000000e+00 1.22241726916615e-01 2.71036632978633e-02 
2.28750000000000e+00 1.21460541918844e-01 2.71607864479778e-02 
2.31250000000000e+00 1.20679323774672e-01 2.72119716899369e-02 
2.33750000000000e+00 1.19898527643924e-01 2.72573465609029e-02 
2.36250000000000e+00 1.19118327333874e-01 2.72969804875852e-02 
2.38750000000000e+00 1.18338894046009e-01 2.73309681220583e-02 
2.41250000000000e+00 1.17560393743313e-01 2.73593929171578e-02 
2.43750000000000e+00 1.16785546211411e-01 2.73824516954267e-02 
2.46250000000000e+00 1.16014510721489e-01 2.74002688183729e-02 
2.48750000000000e+00 1.15247441707031e-01 2.74129421798038e-02 
2.51250000000000e+00 1.14484487805146e-01 2.74206711270393e-02 
2.53750000000000e+00 1.13722551699064e-01 2.74235058006804e-02 
2.56250000000000e+00 1.12961772860739e-01 2.74214254456786e-02 
2.58750000000000e+00 1.12202288470894e-01 2.74145327016693e-02 
2.61250000000000e+00 1.11444230924035e-01 2.74029629339122e-02 
2.63750000000000e+00 1.10688597606790e-01 2.73868704599918e-02 
2.66250000000000e+00 1.09935509691827e-01 2.73663980991475e-02 
2.68750000000000e+00 1.09185085140800e-01 2.73416385084669e-02 
2.71250000000000e+00 1.08437437990874e-01 2.73127359352742e-02 
2.73750000000000e+00 1.07692681909833e-01 2.72798883628885e-02 
2.76250000000000e+00 1.06950918108177e-01 2.72432668404184e-02 
2.78750000000000e+00 1.06212243400015e-01 2.72029664186107e-02 
2.81250000000000e+00 1.05476752076550e-01 2.71590633211233e-02 
2.83750000000000e+00 1.04743370961999e-01 2.71116271147639e-02 
2.86250000000000e+00 1.04012198872352e-01 2.70606103661779e-02 
2.88750000000000e+00 1.03283330495181e-01 2.70060476711998e-02 
2.91250000000000e+00 1.02556857941623e-01 2.69480806344645e-02 
2.93750000000000e+00 1.01832982368343e-01 2.68868881497177e-02 
2.96250000000000e+00 1.01111784701709e-01 2.68225641555895e-02 
2.98750000000000e+00 1.00393345129167e-01 2.67551541710691e-02 
3.01250000000000e+00 9.96777413893011e-02 2.66847958336020e-02 
3.03750000000000e+00 9.89647824999154e-02 2.66117437472597e-02 
3.06250000000000e+00 9.82545279788842e-02 2.65362199447149e-02 
3.08750000000000e+00 9.75470381805033e-02 2.64583336449999e-02 
3.11250000000000e+00 9.68423722754888e-02 2.63781544005226e-02 
3.13750000000000e+00 9.61404982771037e-02 2.62957814036515e-02 
3.16250000000000e+00 9.54414704319710e-02 2.62112779999252e-02 
3.18750000000000e+00 9.47453414813451e-02 2.61247130168994e-02 
3.21250000000000e+00 9.40521616395295e-02 2.60362166541001e-02 
3.23750000000000e+00 9.33634670927165e-02 2.59457757371584e-02 
3.26250000000000e+00 9.26792988963813e-02 2.58534356748871e-02 
3.28750000000000e+00 9.19996939700333e-02 2.57591833815147e-02 
3.31250000000000e+00 9.13246874213216e-02 2.56630742105742e-02 
3.33750000000000e+00 9.06518648253184e-02 2.55653705662011e-02 
3.36250000000000e+00 8.99812740330175e-02 2.54659961067207e-02 
3.38750000000000e+00 8.93129614472656e-02 2.53650023756517e-02 
3.41250000000000e+00 8.86469723234986e-02 2.52624468267997e-02 
3.43750000000000e+00 8.79836493524769e-02 2.51584415633086e-02 
3.46250000000000e+00 8.73230246739868e-02 2.50531764047078e-02 
3.48750000000000e+00 8.66651305226035e-02 2.49467343159218e-02 
3.51250000000000e+00 8.60099982945300e-02 2.48391636051862e-02 
3.53750000000000e+00 8.53575765271951e-02 2.47305235870591e-02 
3.56250000000000e+00 8.47078945150711e-02 2.46208346222053e-02 
3.58750000000000e+00 8.40609812337505e-02 2.45101315144974e-02 
3.61250000000000e+00 8.34168641403746e-02 2.43984882351598e-02 
3.63750000000000e+00 8.27754040293904e-02 2.42860160534518e-02 
3.66250000000000e+00 8.21366281740392e-02 2.41727890454072e-02 
3.68750000000000e+00 8.15005584474475e-02 2.40588558562966e-02 
3.71250000000000e+00 8.08672161097442e-02 2.39442430070340e-02 
3.73750000000000e+00 8.02362094340790e-02 2.38290187902177e-02 
3.76250000000000e+00 7.96075619571429e-02 2.37131515789310e-02 
3.78750000000000e+00 7.89812979606165e-02 2.35966444685399e-02 
3.81250000000000e+00 7.83574409291338e-02 2.34796094414266e-02 
3.83750000000000e+00 7.77357394644304e-02 2.33623856224938e-02 
3.86250000000000e+00 7.71161996552650e-02 2.32453148925931e-02 
3.88750000000000e+00 7.64988229586577e-02 2.31285486223201e-02 
3.91250000000000e+00 7.58836105864413e-02 2.30121048665834e-02 
3.93750000000000e+00 7.52709184057307e-02 2.28960498296980e-02 
3.96250000000000e+00 7.46607386578069e-02 2.27805581133087e-02 
3.98750000000000e+00 7.40530604647894e-02 2.26656816623202e-02 
4.01250000000000e+00 7.34478731820084e-02 2.25512267735853e-02 
4.03750000000000e+00 7.28456118649117e-02 2.24369066262312e-02 
4.06250000000000e+00 7.22462779104836e-02 2.23228374843651e-02 
4.08750000000000e+00 7.16498622686802e-02 2.22091529534693e-02 
4.11250000000000e+00 7.10563559469414e-02 2.20958766790345e-02 
4.13750000000000e+00 7.04647224655109e-02 2.19830922851602e-02 
4.16250000000000e+00 6.98749638292540e-02 2.18705675449371e-02 
4.18750000000000e+00 6.92870874360276e-02 2.17581323257138e-02 
4.21250000000000e+00 6.87010743800864e-02 2.16457014414109e-02 
4.23750000000000e+00 6.81178889551344e-02 2.15332012863088e-02 
4.26250000000000e+00 6.75375303777749e-02 2.14207887605066e-02 
4.28750000000000e+00 6.69599976547197e-02 2.13084951286274e-02 
4.31250000000000e+00 6.63852897936442e-02 2.11962948498697e-02 
4.33750000000000e+00 6.58134873676240e-02 2.10842342800511e-02 
4.36250000000000e+00 6.52445855819924e-02 2.09725012220656e-02 
4.38750000000000e+00 6.46785741395448e-02 2.08611954316071e-02 
4.41250000000000e+00 6.41154427811937e-02 2.07501633143771e-02 
4.43750000000000e+00 6.35549850656679e-02 2.06391951224397e-02 
4.46250000000000e+00 6.29972045929302e-02 2.05282695666338e-02 
4.48750000000000e+00 6.24421017171373e-02 2.04174646732019e-02 
4.51250000000000e+00 6.18896766145581e-02 2.03068160916593e-02 
4.53750000000000e+00 6.13398813357223e-02 2.01964862017115e-02 
4.56250000000000e+00 6.07927081628751e-02 2.00866802339872e-02 
4.58750000000000e+00 6.02481444382540e-02 1.99774813569470e-02 
4.61250000000000e+00 5.97061775438079e-02 1.98688445477609e-02 
4.63750000000000e+00 5.91668019613161e-02 1.97605287058083e-02 
4.66250000000000e+00 5.86300206042512e-02 1.96521881274666e-02 
4.68750000000000e+00 5.80958421358281e-02 1.95436804159735e-02 
4.71250000000000e+00 5.75642748843398e-02 1.94349234826103e-02 
4.73750000000000e+00 5.70352039812684e-02 1.93257258641025e-02 
4.76250000000000e+00 5.65086507258302e-02 1.92159402043097e-02 
4.78750000000000e+00 5.59846372275013e-02 1.91055651055621e-02 
4.81250000000000e+00 5.54631846804350e-02 1.89946145275034e-02 
4.83750000000000e+00 5.49444509597973e-02 1.88831035561622e-02 
4.86250000000000e+00 5.44284533730707e-02 1.87711292612882e-02 
4.88750000000000e+00 5.39152072523665e-02 1.86587525631340e-02 
4.91250000000000e+00 5.34047273566153e-02 1.85459719690298e-02 
4.93750000000000e+00 5.28971656990194e-02 1.84327834076228e-02 
4.96250000000000e+00 5.23925348237867e-02 1.83192684921236e-02 
4.98750000000000e+00 5.18908448579058e-02 1.82054839151004e-02 
5.01250000000000e+00 5.13921052168376e-02 1.80915496394480e-02 
5.03750000000000e+00 5.08956449646347e-02 1.79777257936360e-02 
5.06250000000000e+00 5.04014717156853e-02 1.78639631771627e-02 
5.08750000000000e+00 4.99095959196441e-02 1.77502168476475e-02 
5.11250000000000e+00 4.94200276878135e-02 1.76365080735551e-02 
5.13750000000000e+00 4.89332087642438e-02 1.75228378839521e-02 
5.16250000000000e+00 4.84491409000431e-02 1.74093426780631e-02 
5.18750000000000e+00 4.79678229320757e-02 1.72960806717617e-02 
5.21250000000000e+00 4.74892533247186e-02 1.71830309779149e-02 
5.23750000000000e+00 4.70132740417952e-02 1.70702400827611e-02 
5.26250000000000e+00 4.65398840044269e-02 1.69578208000230e-02 
5.28750000000000e+00 4.60690778471882e-02 1.68458486190823e-02 
5.31250000000000e+00 4.56008501831647e-02 1.67343007712535e-02 
5.33750000000000e+00 4.51348861533196e-02 1.66231904606380e-02 
5.36250000000000e+00 4.46711856780995e-02 1.65124839351128e-02 
5.38750000000000e+00 4.42097484359733e-02 1.64021886906553e-02 
5.41250000000000e+00 4.37505737981368e-02 1.62922376747329e-02 
5.43750000000000e+00 4.32936696143882e-02 1.61825257067364e-02 
5.46250000000000e+00 4.28390421126830e-02 1.60730595966231e-02 
5.48750000000000e+00 4.23866941406127e-02 1.59638821915085e-02 
5.51250000000000e+00 4.19366283380537e-02 1.58549897840375e-02 
5.53750000000000e+00 4.14892929443262e-02 1.57462446358764e-02 
5.56250000000000e+00 4.10446893006789e-02 1.56375816185513e-02 
5.58750000000000e+00 4.06028210256508e-02 1.55289695554816e-02 
5.61250000000000e+00 4.01636912287983e-02 1.54204230798819e-02 
5.63750000000000e+00 3.97271594100728e-02 1.53120823855771e-02 
5.66250000000000e+00 3.92932240468076e-02 1.52041532593753e-02 
5.68750000000000e+00 3.88618770751009e-02 1.50967418801186e-02 
5.71250000000000e+00 3.84331103981740e-02 1.49898608754206e-02 
5.73750000000000e+00 3.80070551822459e-02 1.48833289339837e-02 
5.76250000000000e+00 3.75837108926995e-02 1.47768125265705e-02 
5.78750000000000e+00 3.71630867902640e-02 1.46701495458674e-02 
5.81250000000000e+00 3.67451914745010e-02 1.45632616486457e-02 
5.83750000000000e+00 3.63299088762693e-02 1.44561272177106e-02 
5.86250000000000e+00 3.59172534248379e-02 1.43489190619628e-02 
5.88750000000000e+00 3.55072298955570e-02 1.42417815548350e-02 
5.91250000000000e+00 3.50998426701651e-02 1.41347805364028e-02 
5.93750000000000e+00 3.46941667591534e-02 1.40282070170412e-02 
5.96250000000000e+00 3.42902106247840e-02 1.39220501463222e-02 
5.98750000000000e+00 3.38879826147152e-02 1.38163123253858e-02 
6.01250000000000e+00 3.34874906293083e-02 1.37107882686449e-02 
6.03750000000000e+00 3.30887671974483e-02 1.36050788126935e-02 
6.06250000000000e+00 3.26918422635336e-02 1.34990248148763e-02 
6.08750000000000e+00 3.22967454336891e-02 1.33926683394214e-02 
6.11250000000000e+00 3.19035054331103e-02 1.32861462693529e-02 
6.13750000000000e+00 3.15127140904383e-02 1.31795576964667e-02 
6.16250000000000e+00 3.11243808632718e-02 1.30730315469086e-02 
6.18750000000000e+00 3.07385151541546e-02 1.29665760503754e-02 
6.21250000000000e+00 3.03551257386522e-02 1.28600865759799e-02 
6.23750000000000e+00 2.99742363524301e-02 1.27533930775722e-02 
6.26250000000000e+00 2.95958656109798e-02 1.26465099990329e-02 
6.28750000000000e+00 2.92200282931140e-02 1.25395186040743e-02 
6.31250000000000e+00 2.88467383550006e-02 1.24324838840176e-02 
6.33750000000000e+00 2.84760057406938e-02 1.23254067481283e-02 
6.36250000000000e+00 2.81078445509625e-02 1.22181542191532e-02 
6.38750000000000e+00 2.77422737425212e-02 1.21106603679452e-02 
6.41250000000000e+00 2.73793113039439e-02 1.20026640118258e-02 
6.43750000000000e+00 2.70190092808491e-02 1.18937115956803e-02 
6.46250000000000e+00 2.66614132184421e-02 1.17837448137984e-02 
6.48750000000000e+00 2.63065616676530e-02 1.16729040797350e-02 
6.51250000000000e+00 2.59544916109083e-02 1.15613531015717e-02 
6.53750000000000e+00 2.56052263904789e-02 1.14493130297226e-02 
6.56250000000000e+00 2.52587898453252e-02 1.13368466478213e-02 
6.58750000000000e+00 2.49152071591767e-02 1.12239536600411e-02 
6.61250000000000e+00 2.45745023249848e-02 1.11105788690558e-02 
6.63750000000000e+00 2.42367488308300e-02 1.09965919987507e-02 
6.66250000000000e+00 2.39019774634699e-02 1.08820011349852e-02 
6.68750000000000e+00 2.35702161496107e-02 1.07668780454467e-02 
6.71250000000000e+00 2.32414914185183e-02 1.06513511042849e-02 
6.73750000000000e+00 2.29158189395059e-02 1.05356372626608e-02 
6.76250000000000e+00 2.25932120725217e-02 1.04198777356470e-02 
6.78750000000000e+00 2.22736823097059e-02 1.03041185071202e-02 
6.81250000000000e+00 2.19572401708521e-02 1.01884785142272e-02 
6.83750000000000e+00 2.16438845353881e-02 1.00730760899152e-02 
6.86250000000000e+00 2.13336199895497e-02 9.95785569734828e-03 
6.88750000000000e+00 2.10264540434877e-02 9.84276312448095e-03 
6.91250000000000e+00 2.07223933154532e-02 9.72776399369781e-03 
6.93750000000000e+00 2.04209958115268e-02 9.61289100545509e-03 
6.96250000000000e+00 2.01222819963241e-02 9.49805599412262e-03 
6.98750000000000e+00 1.98262723199540e-02 9.38327747041332e-03 
7.01250000000000e+00 1.95329860577018e-02 9.26871781662247e-03 
7.03750000000000e+00 1.92428596999497e-02 9.15451714164047e-03 
7.06250000000000e+00 1.89558866459895e-02 9.04084954984714e-03 
7.08750000000000e+00 1.86720606496827e-02 8.92773451512412e-03 
7.11250000000000e+00 1.83913749073221e-02 8.81519669024955e-03 
7.13750000000000e+00 1.81138212085195e-02 8.70334989483762e-03 
7.16250000000000e+00 1.78393853314714e-02 8.59237354899462e-03 
7.18750000000000e+00 1.75680476456126e-02 8.48235180578711e-03 
7.21250000000000e+00 1.72997882928215e-02 8.37334953062872e-03 
7.23750000000000e+00 1.70345797719462e-02 8.26542156378836e-03 
7.26250000000000e+00 1.67723995997730e-02 8.15849033671396e-03 
7.28750000000000e+00 1.65132283908495e-02 8.05248999059115e-03 
7.31250000000000e+00 1.62570465444143e-02 7.94735150180692e-03 
7.33750000000000e+00 1.60038434905645e-02 7.84294094444527e-03 
7.36250000000000e+00 1.57536078410116e-02 7.73920382991419e-03 
7.38750000000000e+00 1.55063276417086e-02 7.63615239487113e-03 
7.41250000000000e+00 1.52619905200948e-02 7.53394413642496e-03 
7.43750000000000e+00 1.50205649882353e-02 7.43289081081513e-03 
7.46250000000000e+00 1.47820180880602e-02 7.33315850897683e-03 
7.48750000000000e+00 1.45463164651198e-02 7.23475075742610e-03 
7.51250000000000e+00 1.43134270210596e-02 7.13765119859516e-03 
7.53750000000000e+00 1.40833173973747e-02 7.04183610731945e-03 
7.56250000000000e+00 1.38559556469412e-02 6.94728002365053e-03 
7.58750000000000e+00 1.36313103746092e-02 6.85396563356132e-03 
7.61250000000000e+00 1.34093503967979e-02 6.76188370435882e-03 
7.63750000000000e+00 1.31900444648297e-02 6.67102091735210e-03 
7.66250000000000e+00 1.29733614889815e-02 6.58135499619210e-03 
7.68750000000000e+00 1.27592714395946e-02 6.49286804179638e-03 
7.71250000000000e+00 1.25477444833849e-02 6.40555478697947e-03 
7.73750000000000e+00 1.23389302975976e-02 6.31936445340618e-03 
7.76250000000000e+00 1.21327948328235e-02 6.23432435908341e-03 
