Energy(eV)           EEDF(eV^-(3/2))      Anisotropy(eV^-(3/2))
1.25000000000000e-02 5.06307769450916e-01 1.29027481904339e-02 
3.75000000000000e-02 5.05923526986869e-01 9.41743157153727e-03 
6.25000000000000e-02 5.05348461746876e-01 1.60787289988866e-02 
8.75000000000000e-02 5.04642863832641e-01 2.07864623653486e-02 
1.12500000000000e-01 5.03865359704517e-01 2.35489360759037e-02 
1.37500000000000e-01 5.03060641865997e-01 2.52382199447540e-02 
1.62500000000000e-01 5.02216459634405e-01 2.64248028331663e-02 
1.87500000000000e-01 5.01374347236065e-01 2.72612530334729e-02 
2.12500000000000e-01 5.00526868024319e-01 2.79250455610974e-02 
2.37500000000000e-01 4.99659879576637e-01 2.85035610850802e-02 
2.62500000000000e-01 4.98774967995172e-01 2.94607023785009e-02 
2.87500000000000e-01 4.97859618669650e-01 3.06344296728353e-02 
3.12500000000000e-01 4.96926733099450e-01 3.08739095182980e-02 
3.37500000000000e-01 4.95998345975266e-01 3.02885191282619e-02 
3.62500000000000e-01 4.95088839807924e-01 2.95707046919785e-02 
3.87500000000000e-01 4.94190924356427e-01 2.93336291004574e-02 
4.12500000000000e-01 4.93274238450022e-01 2.98459852872602e-02 
4.37500000000000e-01 4.92322114211570e-01 3.00065973673127e-02 
4.62500000000000e-01 4.91349679746263e-01 2.94941770582443e-02 
4.87500000000000e-01 4.90407756177805e-01 2.93068806163792e-02 
5.12500000000000e-01 4.89446615470856e-01 2.98678934979856e-02 
5.37500000000000e-01 4.88453571033888e-01 3.09214722500140e-02 
5.62500000000000e-01 4.87417847926345e-01 3.17279034033600e-02 
5.87500000000000e-01 4.86338491228024e-01 3.22394683384176e-02 
6.12500000000000e-01 4.85261994502464e-01 3.35871439594364e-02 
6.37500000000000e-01 4.84118746876678e-01 3.58179699577083e-02 
6.62500000000000e-01 4.82897391249678e-01 3.81104709133530e-02 
6.87500000000000e-01 4.81605454515936e-01 4.02006202902657e-02 
7.12500000000000e-01 4.80224985977235e-01 4.23332360435136e-02 
7.37500000000000e-01 4.78785161196845e-01 4.50704504011592e-02 
7.62500000000000e-01 4.77233087886630e-01 4.84003917240354e-02 
7.87500000000000e-01 4.75554694955056e-01 5.17778949990899e-02 
8.12500000000000e-01 4.73713147108405e-01 5.51123543162979e-02 
8.37500000000000e-01 4.71771184381710e-01 5.92285680441984e-02 
8.62500000000000e-01 4.69640934268105e-01 6.40761395003808e-02 
8.87500000000000e-01 4.67302937716090e-01 6.93075761787060e-02 
9.12500000000000e-01 4.64739906988587e-01 7.48427798714037e-02 
9.37500000000000e-01 4.61941852950311e-01 8.06888982578469e-02 
9.62500000000000e-01 4.58915273537754e-01 8.69862504542893e-02 
9.87500000000000e-01 4.55626897010852e-01 9.36662919618861e-02 
1.01250000000000e+00 4.52062057981158e-01 1.00538897559011e-01 
1.03750000000000e+00 4.48133070660340e-01 1.07427008426985e-01 
1.06250000000000e+00 4.43860261095838e-01 1.14471714243540e-01 
1.08750000000000e+00 4.39201885546009e-01 1.21548734580548e-01 
1.11250000000000e+00 4.34144840338682e-01 1.28554165567108e-01 
1.13750000000000e+00 4.28687723145886e-01 1.35471235948263e-01 
1.16250000000000e+00 4.22807175812986e-01 1.42281595030860e-01 
1.18750000000000e+00 4.16513887771843e-01 1.49021207936880e-01 
1.21250000000000e+00 4.09780121743274e-01 1.55609407660752e-01 
1.23750000000000e+00 4.02503228318557e-01 1.61852858934597e-01 
1.26250000000000e+00 3.94664435958895e-01 1.67607091808400e-01 
1.28750000000000e+00 3.86272932242344e-01 1.72701900689080e-01 
1.31250000000000e+00 3.77329158316229e-01 1.76928592606301e-01 
1.33750000000000e+00 3.67803831925368e-01 1.80072489351750e-01 
1.36250000000000e+00 3.57722011930799e-01 1.81993853065573e-01 
1.38750000000000e+00 3.47135187253260e-01 1.82620086901314e-01 
1.41250000000000e+00 3.36087233232585e-01 1.81936749615007e-01 
1.43750000000000e+00 3.24644427649624e-01 1.80002287490724e-01 
1.46250000000000e+00 3.12874310205587e-01 1.76955114871358e-01 
1.48750000000000e+00 3.00856223041581e-01 1.72987337352115e-01 
1.51250000000000e+00 2.88669434138960e-01 1.68337228310828e-01 
1.53750000000000e+00 2.76537850504749e-01 1.63210239208080e-01 
1.56250000000000e+00 2.64531634984299e-01 1.57845825325259e-01 
1.58750000000000e+00 2.52710414454563e-01 1.52416826262161e-01 
1.61250000000000e+00 2.41124379212174e-01 1.47030156105918e-01 
1.63750000000000e+00 2.29895978443943e-01 1.41714864154303e-01 
1.66250000000000e+00 2.19045357027849e-01 1.36499093674408e-01 
1.68750000000000e+00 2.08573613155883e-01 1.31349325151443e-01 
1.71250000000000e+00 1.98469141435522e-01 1.26217047991381e-01 
1.73750000000000e+00 1.88840144903601e-01 1.21024878958966e-01 
1.76250000000000e+00 1.79671212739045e-01 1.15762465778283e-01 
1.78750000000000e+00 1.70949403917606e-01 1.10423101193611e-01 
1.81250000000000e+00 1.62668456468634e-01 1.05038624217061e-01 
1.83750000000000e+00 1.54827255089743e-01 9.96904417558115e-02 
1.86250000000000e+00 1.47421085617973e-01 9.44944287675520e-02 
1.88750000000000e+00 1.40444645010735e-01 8.95653039519028e-02 
1.91250000000000e+00 1.33888125852077e-01 8.49846441551874e-02 
1.93750000000000e+00 1.27807789747787e-01 8.07356658120706e-02 
1.96250000000000e+00 1.22179292492993e-01 7.68145940788573e-02 
1.98750000000000e+00 1.16981833934682e-01 7.31805138879950e-02 
2.01250000000000e+00 1.12184360106726e-01 6.97675636225728e-02 
2.03750000000000e+00 1.07755429407704e-01 6.65212432372276e-02 
2.06250000000000e+00 1.03671774271520e-01 6.34233042959690e-02 
2.08750000000000e+00 9.99009162399527e-02 6.04684806402488e-02 
2.11250000000000e+00 9.64102584636043e-02 5.76321216955678e-02 
2.13750000000000e+00 9.31227024285222e-02 5.49344270758461e-02 
2.16250000000000e+00 9.00296294430240e-02 5.23647467489253e-02 
2.18750000000000e+00 8.71186282396831e-02 4.99169591795910e-02 
2.21250000000000e+00 8.43873144277079e-02 4.75825718152388e-02 
2.23750000000000e+00 8.18224825747006e-02 4.53760997578104e-02 
2.26250000000000e+00 7.94228550433639e-02 4.33032996637996e-02 
2.28750000000000e+00 7.71800737299357e-02 4.13630367723712e-02 
2.31250000000000e+00 7.50798770179947e-02 3.95522802872877e-02 
2.33750000000000e+00 7.31100122480272e-02 3.78617868307915e-02 
2.36250000000000e+00 7.12501438642686e-02 3.62761839818224e-02 
2.38750000000000e+00 6.94901916646914e-02 3.47730825838342e-02 
2.41250000000000e+00 6.78203347820835e-02 3.33439547291810e-02 
2.43750000000000e+00 6.62409131522336e-02 3.19817018281601e-02 
2.46250000000000e+00 6.47478605410644e-02 3.06908942227022e-02 
2.48750000000000e+00 6.33453113034582e-02 2.94770120162747e-02 
2.51250000000000e+00 6.20276295552054e-02 2.83462439804236e-02 
2.53750000000000e+00 6.07799490797449e-02 2.73003539643060e-02 
2.56250000000000e+00 5.95942592429943e-02 2.63307599520706e-02 
2.58750000000000e+00 5.84628458731729e-02 2.54236756265046e-02 
2.61250000000000e+00 5.73781570744505e-02 2.45626171582983e-02 
2.63750000000000e+00 5.63361500163213e-02 2.37357699747811e-02 
2.66250000000000e+00 5.53366267433554e-02 2.29383535375766e-02 
2.68750000000000e+00 5.43784538607400e-02 2.21736099684790e-02 
2.71250000000000e+00 5.34632425272399e-02 2.14482291598016e-02 
2.73750000000000e+00 5.25891900991403e-02 2.07714675275113e-02 
2.76250000000000e+00 5.17552746582980e-02 2.01448351196553e-02 
2.78750000000000e+00 5.09553726010972e-02 1.95642682477943e-02 
2.81250000000000e+00 5.01866247390531e-02 1.90192759392628e-02 
2.83750000000000e+00 4.94426365096965e-02 1.85025585341694e-02 
2.86250000000000e+00 4.87226950758080e-02 1.80062114822127e-02 
2.88750000000000e+00 4.80247159455030e-02 1.75287233440369e-02 
2.91250000000000e+00 4.73499692409961e-02 1.70723927872608e-02 
2.93750000000000e+00 4.66976709585168e-02 1.66425079641870e-02 
2.96250000000000e+00 4.60674119858004e-02 1.62415945057120e-02 
2.98750000000000e+00 4.54571132565434e-02 1.58694941105687e-02 
3.01250000000000e+00 4.48649242085561e-02 1.55221660760682e-02 
3.03750000000000e+00 4.42887423496205e-02 1.51938940122925e-02 
3.06250000000000e+00 4.37271222679123e-02 1.48794443435471e-02 
3.08750000000000e+00 4.31793820066360e-02 1.45758351626969e-02 
3.11250000000000e+00 4.26452854273552e-02 1.42825258163138e-02 
3.13750000000000e+00 4.21249427892283e-02 1.40014028163508e-02 
3.16250000000000e+00 4.16178409528197e-02 1.37356424490761e-02 
3.18750000000000e+00 4.11236299560954e-02 1.34863522601913e-02 
3.21250000000000e+00 4.06409704998725e-02 1.32522445906518e-02 
3.23750000000000e+00 4.01691857590905e-02 1.30303890901380e-02 
3.26250000000000e+00 3.97072188593321e-02 1.28174311935403e-02 
3.28750000000000e+00 3.92547427650342e-02 1.26104323586779e-02 
3.31250000000000e+00 3.88113411773415e-02 1.24086225854782e-02 
3.33750000000000e+00 3.83769338335019e-02 1.22124751136740e-02 
3.36250000000000e+00 3.79512529776590e-02 1.20226883118819e-02 
3.38750000000000e+00 3.75341676016956e-02 1.18394870678319e-02 
3.41250000000000e+00 3.71251474605450e-02 1.16626467435619e-02 
3.43750000000000e+00 3.67238454649223e-02 1.14913452354016e-02 
3.46250000000000e+00 3.63297659333835e-02 1.13244362784580e-02 
3.48750000000000e+00 3.59426833702888e-02 1.11608515784968e-02 
3.51250000000000e+00 3.55623961568747e-02 1.10003669491268e-02 
3.53750000000000e+00 3.51888801262183e-02 1.08432418768075e-02 
3.56250000000000e+00 3.48219789365152e-02 1.06900944309451e-02 
3.58750000000000e+00 3.44615997113940e-02 1.05421088162913e-02 
3.61250000000000e+00 3.41076244708884e-02 1.04005981544602e-02 
3.63750000000000e+00 3.37598064673617e-02 1.02653591671387e-02 
3.66250000000000e+00 3.34178769412104e-02 1.01347840932298e-02 
3.68750000000000e+00 3.30817492143348e-02 1.00077716888094e-02 
3.71250000000000e+00 3.27512283118791e-02 9.88426627153368e-03 
3.73750000000000e+00 3.24262157752936e-02 9.76448224888945e-03 
3.76250000000000e+00 3.21065237405602e-02 9.64832839155519e-03 
3.78750000000000e+00 3.17920237991857e-02 9.53532055421564e-03 
3.81250000000000e+00 3.14825123917347e-02 9.42516567401989e-03 
3.83750000000000e+00 3.11778080669828e-02 9.31770095104361e-03 
3.86250000000000e+00 3.08777411227267e-02 9.21266173900034e-03 
3.88750000000000e+00 3.05822026237309e-02 9.10976814211761e-03 
3.91250000000000e+00 3.02910261567362e-02 9.00913097264696e-03 
3.93750000000000e+00 3.00042398588860e-02 8.91104659695623e-03 
3.96250000000000e+00 2.97217226954933e-02 8.81569449667326e-03 
3.98750000000000e+00 2.94434385391673e-02 8.72314283321567e-03 
4.01250000000000e+00 2.91693242194779e-02 8.63338232387254e-03 
4.03750000000000e+00 2.88986694631442e-02 8.54645214045447e-03 
4.06250000000000e+00 2.86313489936794e-02 8.46217833057718e-03 
4.08750000000000e+00 2.83673921048220e-02 8.38039135887452e-03 
4.11250000000000e+00 2.81067007682730e-02 8.30100731283956e-03 
4.13750000000000e+00 2.78491005221089e-02 8.22392885418296e-03 
4.16250000000000e+00 2.75945075829627e-02 8.14899342463895e-03 
4.18750000000000e+00 2.73428405431732e-02 8.07610184733822e-03 
4.21250000000000e+00 2.70940092176124e-02 8.00525886463051e-03 
4.23750000000000e+00 2.68480038175395e-02 7.93647252976735e-03 
4.26250000000000e+00 2.66047294293289e-02 7.86975889789856e-03 
4.28750000000000e+00 2.63641015984865e-02 7.80513601072293e-03 
4.31250000000000e+00 2.61260399722653e-02 7.74258429082122e-03 
4.33750000000000e+00 2.58904756191365e-02 7.68204912886205e-03 
4.36250000000000e+00 2.56573350185101e-02 7.62344110146002e-03 
4.38750000000000e+00 2.54265458551084e-02 7.56661783056300e-03 
4.41250000000000e+00 2.51980410501880e-02 7.51144874441160e-03 
4.43750000000000e+00 2.49717454067862e-02 7.45783379537288e-03 
4.46250000000000e+00 2.47476684795504e-02 7.40569299925267e-03 
4.48750000000000e+00 2.45257530769521e-02 7.35498743115720e-03 
4.51250000000000e+00 2.43059448401918e-02 7.30551379815702e-03 
4.53750000000000e+00 2.40882064476299e-02 7.25696652426618e-03 
4.56250000000000e+00 2.38726967218642e-02 7.20922215550021e-03 
4.58750000000000e+00 2.36593766741255e-02 7.16231120763560e-03 
4.61250000000000e+00 2.34482082461168e-02 7.11616973132448e-03 
4.63750000000000e+00 2.32391461547735e-02 7.07068925285101e-03 
4.66250000000000e+00 2.30321687148840e-02 7.02578505809556e-03 
4.68750000000000e+00 2.28272466929410e-02 6.98142343475343e-03 
4.71250000000000e+00 2.26243525844666e-02 6.93757959615797e-03 
4.73750000000000e+00 2.24234472206710e-02 6.89425099943274e-03 
4.76250000000000e+00 2.22245042480782e-02 6.85163555508016e-03 
4.78750000000000e+00 2.20274865847272e-02 6.81008437803011e-03 
4.81250000000000e+00 2.18323480221930e-02 6.76975476495483e-03 
4.83750000000000e+00 2.16390559297299e-02 6.73064942600400e-03 
4.86250000000000e+00 2.14475863205454e-02 6.69277165521752e-03 
4.88750000000000e+00 2.12578940558858e-02 6.65610413819492e-03 
4.91250000000000e+00 2.10699355426710e-02 6.62045908643574e-03 
4.93750000000000e+00 2.08836257380878e-02 6.58551055940129e-03 
4.96250000000000e+00 2.06989451023879e-02 6.55108979498214e-03 
4.98750000000000e+00 2.05158718587589e-02 6.51718516923436e-03 
5.01250000000000e+00 2.03343836547571e-02 6.48378811064280e-03 
5.03750000000000e+00 2.01542937569506e-02 6.45101820056253e-03 
5.06250000000000e+00 1.99755697134688e-02 6.41904234940218e-03 
5.08750000000000e+00 1.97981571510456e-02 6.38788283785750e-03 
5.11250000000000e+00 1.96220190197673e-02 6.35734011950076e-03 
5.13750000000000e+00 1.94471104552142e-02 6.32716319797050e-03 
5.16250000000000e+00 1.92734199074030e-02 6.29724348309609e-03 
5.18750000000000e+00 1.91009675219390e-02 6.26757785355734e-03 
5.21250000000000e+00 1.89297444918149e-02 6.23814941474593e-03 
5.23750000000000e+00 1.87597230787248e-02 6.20892721684457e-03 
5.26250000000000e+00 1.85908932231263e-02 6.17989117646468e-03 
5.28750000000000e+00 1.84232462336847e-02 6.15103646762038e-03 
5.31250000000000e+00 1.82567748420768e-02 6.12235919048434e-03 
5.33750000000000e+00 1.80914515368346e-02 6.09385835114297e-03 
5.36250000000000e+00 1.79272674764252e-02 6.06553029133303e-03 
5.38750000000000e+00 1.77642137823064e-02 6.03737223631134e-03 
5.41250000000000e+00 1.76022819581154e-02 6.00937498456481e-03 
5.43750000000000e+00 1.74414638837359e-02 5.98154179819665e-03 
5.46250000000000e+00 1.72817506096227e-02 5.95390035922035e-03 
5.48750000000000e+00 1.71231327216770e-02 5.92646674387045e-03 
5.51250000000000e+00 1.69656008949218e-02 5.89922167775332e-03 
5.53750000000000e+00 1.68091730661876e-02 5.87212480548072e-03 
5.56250000000000e+00 1.66538421230345e-02 5.84515858669445e-03 
5.58750000000000e+00 1.64996003952553e-02 5.81832407872013e-03 
5.61250000000000e+00 1.63464402777547e-02 5.79162228132724e-03 
5.63750000000000e+00 1.61943457974741e-02 5.76506146468843e-03 
5.66250000000000e+00 1.60433093236563e-02 5.73865579989806e-03 
5.68750000000000e+00 1.58933228879062e-02 5.71241168968841e-03 
5.71250000000000e+00 1.57443785413681e-02 5.68632811173470e-03 
5.73750000000000e+00 1.55964768157804e-02 5.66039599122688e-03 
5.76250000000000e+00 1.54496102042278e-02 5.63460456173251e-03 
5.78750000000000e+00 1.53037714552340e-02 5.60895502253730e-03 
5.81250000000000e+00 1.51589531607818e-02 5.58344388140408e-03 
5.83750000000000e+00 1.50151402588287e-02 5.55806560799213e-03 
5.86250000000000e+00 1.48723258370136e-02 5.53283661258053e-03 
5.88750000000000e+00 1.47305020164597e-02 5.50777723844406e-03 
5.91250000000000e+00 1.45896514763911e-02 5.48289759431193e-03 
5.93750000000000e+00 1.44497083324150e-02 5.45821114383608e-03 
5.96250000000000e+00 1.43106649595919e-02 5.43371607748078e-03 
5.98750000000000e+00 1.41725137942385e-02 5.40940963814229e-03 
6.01250000000000e+00 1.40352473651572e-02 5.38522566690196e-03 
6.03750000000000e+00 1.38986495424475e-02 5.36105188336120e-03 
6.06250000000000e+00 1.37626897890974e-02 5.33679708239638e-03 
6.08750000000000e+00 1.36273690141068e-02 5.31244971873087e-03 
6.11250000000000e+00 1.34926890600881e-02 5.28802115900756e-03 
6.13750000000000e+00 1.33586861181034e-02 5.26352556184598e-03 
6.16250000000000e+00 1.32253612022496e-02 5.23897206712387e-03 
6.18750000000000e+00 1.30927152621285e-02 5.21436215860948e-03 
6.21250000000000e+00 1.29607489059429e-02 5.18968613363669e-03 
6.23750000000000e+00 1.28294637801405e-02 5.16492984556261e-03 
6.26250000000000e+00 1.26988612808879e-02 5.14010198815199e-03 
6.28750000000000e+00 1.25689422515966e-02 5.11521598010161e-03 
6.31250000000000e+00 1.24397073827733e-02 5.09027964568568e-03 
6.33750000000000e+00 1.23111570517612e-02 5.06529590993169e-03 
6.36250000000000e+00 1.21832918482662e-02 5.04025690765535e-03 
6.38750000000000e+00 1.20561126390198e-02 5.01515984540417e-03 
6.41250000000000e+00 1.19296201583161e-02 4.98998883112502e-03 
6.43750000000000e+00 1.18038168441296e-02 4.96471395038712e-03 
6.46250000000000e+00 1.16787049302865e-02 4.93933262875571e-03 
6.48750000000000e+00 1.15542861832792e-02 4.91385669069644e-03 
6.51250000000000e+00 1.14305622680495e-02 4.88830031610223e-03 
6.53750000000000e+00 1.13075340734044e-02 4.86268195091117e-03 
6.56250000000000e+00 1.11852023191734e-02 4.83700835755310e-03 
6.58750000000000e+00 1.10635678282202e-02 4.81128153927404e-03 
6.61250000000000e+00 1.09426312313086e-02 4.78549874635747e-03 
6.63750000000000e+00 1.08223981253240e-02 4.75965172110115e-03 
6.66250000000000e+00 1.07028694861522e-02 4.73374349799967e-03 
6.68750000000000e+00 1.05840460253798e-02 4.70778183906757e-03 
6.71250000000000e+00 1.04659283490129e-02 4.68177842084148e-03 
6.73750000000000e+00 1.03485164023922e-02 4.65575166256636e-03 
6.76250000000000e+00 1.02318098651625e-02 4.62971426483999e-03 
6.78750000000000e+00 1.01158082403411e-02 4.60367162710238e-03 
6.81250000000000e+00 1.00005109344924e-02 4.57763228566037e-03 
6.83750000000000e+00 9.88591500099381e-03 4.55160207895969e-03 
6.86250000000000e+00 9.77201963488181e-03 4.52557515315229e-03 
6.88750000000000e+00 9.65882404780694e-03 4.49954884805898e-03 
6.91250000000000e+00 9.54632755079111e-03 4.47352434958561e-03 
6.93750000000000e+00 9.43449624249458e-03 4.44750373342225e-03 
6.96250000000000e+00 9.32332991468504e-03 4.42148266511766e-03 
6.98750000000000e+00 9.21282833664817e-03 4.39546386506702e-03 
7.01250000000000e+00 9.10299043352444e-03 4.36941625021920e-03 
7.03750000000000e+00 8.99378513658495e-03 4.34328146674628e-03 
7.06250000000000e+00 8.88521557389794e-03 4.31703168109682e-03 
7.08750000000000e+00 8.77728469101979e-03 4.29067550216405e-03 
7.11250000000000e+00 8.66999523537188e-03 4.26406841813587e-03 
7.13750000000000e+00 8.56326067591087e-03 4.23694997955447e-03 
7.16250000000000e+00 8.45709870597760e-03 4.20920280506596e-03 
7.18750000000000e+00 8.35152609688035e-03 4.18085706848373e-03 
7.21250000000000e+00 8.24655912218587e-03 4.15194059296078e-03 
7.23750000000000e+00 8.14221303383810e-03 4.12247970526650e-03 
7.26250000000000e+00 8.03850293273730e-03 4.09249046432175e-03 
7.28750000000000e+00 7.93544362107061e-03 4.06198989084626e-03 
7.31250000000000e+00 7.83304938689175e-03 4.03099435019751e-03 
7.33750000000000e+00 7.73133456425378e-03 3.99951465721247e-03 
7.36250000000000e+00 7.63031299316390e-03 3.96756746728931e-03 
7.38750000000000e+00 7.52999796690973e-03 3.93517448950057e-03 
7.41250000000000e+00 7.43040228171006e-03 3.90239227769523e-03 
7.43750000000000e+00 7.33155137268177e-03 3.86930691840758e-03 
7.46250000000000e+00 7.23345331459824e-03 3.83597321885018e-03 
7.48750000000000e+00 7.13611573861146e-03 3.80240868587192e-03 
7.51250000000000e+00 7.03954589197509e-03 3.76862871667257e-03 
7.53750000000000e+00 6.94375068822265e-03 3.73464767880765e-03 
7.56250000000000e+00 6.84873666521232e-03 3.70047940071415e-03 
7.58750000000000e+00 6.75451003288319e-03 3.66613820185241e-03 
7.61250000000000e+00 6.66107663432901e-03 3.63163905761966e-03 
7.63750000000000e+00 6.56844194350466e-03 3.59699637924723e-03 
7.66250000000000e+00 6.47661107518061e-03 3.56222321838935e-03 
7.68750000000000e+00 6.38558885456921e-03 3.52733255602304e-03 
7.71250000000000e+00 6.29537976818683e-03 3.49233809350945e-03 
7.73750000000000e+00 6.20600375635088e-03 3.45724385564988e-03 
7.76250000000000e+00 6.11746463938111e-03 3.42205508537562e-03 
