Energy(eV)           EEDF(eV^-(3/2))      Anisotropy(eV^-(3/2))
8.68055555555556e-03 2.10753223591357e-01 -1.71477335884475e-03 
2.60416666666667e-02 2.10778484991775e-01 -7.46412651461926e-04 
4.34027777777778e-02 2.10800525715374e-01 -1.75796530324853e-04 
6.07638888888889e-02 2.10819810155996e-01 1.69288202277028e-04 
7.81250000000000e-02 2.10836054077566e-01 4.29710764287091e-04 
9.54861111111111e-02 2.10849091787070e-01 6.63776264188429e-04 
1.12847222222222e-01 2.10858700658386e-01 8.80995478428567e-04 
1.30208333333333e-01 2.10864717410933e-01 1.09204059138524e-03 
1.47569444444444e-01 2.10866803709550e-01 1.84167448372379e-03 
1.64930555555556e-01 2.10848452775148e-01 3.08849498901023e-03 
1.82291666666667e-01 2.10807678172778e-01 3.76918768260236e-03 
1.99652777777778e-01 2.10760863776511e-01 4.06728485652279e-03 
2.17013888888889e-01 2.10702994259610e-01 4.49369274713730e-03 
2.34375000000000e-01 2.10634135115594e-01 4.72989437343437e-03 
2.51736111111111e-01 2.10560653172590e-01 4.81037664289597e-03 
2.69097222222222e-01 2.10481657891709e-01 6.18692241816954e-03 
2.86458333333333e-01 2.10344409710200e-01 8.78680646256646e-03 
3.03819444444445e-01 2.10145420279005e-01 1.00966408708712e-02 
3.21180555555556e-01 2.09938666342773e-01 1.02660152412896e-02 
3.38541666666667e-01 2.09703388773369e-01 1.04827443084198e-02 
3.55902777777778e-01 2.09472140859437e-01 1.05484552267080e-02 
3.73263888888889e-01 2.09238791164489e-01 1.05392736492808e-02 
3.90625000000000e-01 2.08998375674512e-01 1.19719222402345e-02 
4.07986111111111e-01 2.08681763791001e-01 1.46924862598050e-02 
4.25347222222222e-01 2.08291510683162e-01 1.64649991707343e-02 
4.42708333333333e-01 2.07871280359568e-01 1.66826277979695e-02 
4.60069444444445e-01 2.07372904461696e-01 1.58243922775277e-02 
4.77430555555556e-01 2.06983498268821e-01 1.50193105228066e-02 
4.94791666666667e-01 2.06594629507842e-01 1.50207665147929e-02 
5.12152777777778e-01 2.06198468097789e-01 1.61100994431799e-02 
5.29513888888889e-01 2.05741223007482e-01 1.83065186525957e-02 
5.46875000000000e-01 2.05217171079849e-01 1.97793837860761e-02 
5.64236111111111e-01 2.04671039077648e-01 1.92090498568883e-02 
5.81597222222222e-01 2.04042741726187e-01 1.75960071452981e-02 
5.98958333333333e-01 2.03592216710845e-01 1.65622318403328e-02 
6.16319444444445e-01 2.03141156324870e-01 1.73225231939500e-02 
6.33680555555556e-01 2.02661318094736e-01 1.88663163141914e-02 
6.51041666666667e-01 2.02147387840872e-01 2.00143066368070e-02 
6.68402777777778e-01 2.01629651034714e-01 2.05855736359636e-02 
6.85763888888889e-01 2.01110760022683e-01 1.99745920618931e-02 
7.03125000000000e-01 2.00522449407278e-01 1.84726045687393e-02 
7.20486111111111e-01 2.00105956029727e-01 1.76860070366043e-02 
7.37847222222222e-01 1.99681142493531e-01 1.82965790550964e-02 
7.55208333333333e-01 1.99238014203663e-01 1.89837655918505e-02 
7.72569444444445e-01 1.98783040714692e-01 1.94435822537585e-02 
7.89930555555556e-01 1.98321180320586e-01 1.89717448529570e-02 
8.07291666666667e-01 1.97793703739349e-01 1.76003230847188e-02 
8.24652777777778e-01 1.97362815287702e-01 1.66005175408875e-02 
8.42013888888889e-01 1.96932750165314e-01 1.67034875072900e-02 
8.59375000000000e-01 1.96468308063580e-01 1.71669209621713e-02 
8.76736111111111e-01 1.95962608306036e-01 1.76723583455108e-02 
8.94097222222222e-01 1.95417255538415e-01 1.78486190658750e-02 
9.11458333333334e-01 1.94831087042906e-01 1.74184591032694e-02 
9.28819444444445e-01 1.94249077657328e-01 1.68473333617060e-02 
9.46180555555556e-01 1.93710002567442e-01 1.67401689109257e-02 
9.63541666666667e-01 1.93158148415830e-01 1.69898086994819e-02 
9.80902777777778e-01 1.92590032163815e-01 1.73067546898626e-02 
9.98263888888889e-01 1.92004151799686e-01 1.75860336921896e-02 
1.01562500000000e+00 1.91404659771447e-01 1.76367849547179e-02 
1.03298611111111e+00 1.90786199504290e-01 1.73781214963421e-02 
1.05034722222222e+00 1.90177750483102e-01 1.71361939032179e-02 
1.06770833333333e+00 1.89584447390942e-01 1.72052025941591e-02 
1.08506944444444e+00 1.88978073126938e-01 1.74266299625222e-02 
1.10243055555556e+00 1.88358750589168e-01 1.76258307072907e-02 
1.11979166666667e+00 1.87727716395232e-01 1.77976312001844e-02 
1.13715277777778e+00 1.87085509791192e-01 1.78367746129108e-02 
1.15451388888889e+00 1.86425555686258e-01 1.77563789129367e-02 
1.17187500000000e+00 1.85779029575341e-01 1.78102587173519e-02 
1.18923611111111e+00 1.85120269331003e-01 1.79987256992269e-02 
1.20659722222222e+00 1.84449087384971e-01 1.81759245482420e-02 
1.22395833333333e+00 1.83770663154886e-01 1.83179195256560e-02 
1.24131944444444e+00 1.83084638618776e-01 1.83968430979874e-02 
1.25868055555556e+00 1.82394282434923e-01 1.84570725584992e-02 
1.27604166666667e+00 1.81705681330154e-01 1.85800791667471e-02 
1.29340277777778e+00 1.81010445541480e-01 1.87433789127485e-02 
1.31076388888889e+00 1.80308943873992e-01 1.89013298678375e-02 
1.32812500000000e+00 1.79603542498910e-01 1.90560062083158e-02 
1.34548611111111e+00 1.78894227931615e-01 1.91887584772094e-02 
1.36284722222222e+00 1.78179337137882e-01 1.93002381527995e-02 
1.38020833333333e+00 1.77465580227796e-01 1.94390474046940e-02 
1.39756944444444e+00 1.76747679962780e-01 1.96026411764026e-02 
1.41493055555556e+00 1.76025696840332e-01 1.97644627739393e-02 
1.43229166666667e+00 1.75299798865169e-01 1.99213816819000e-02 
1.44965277777778e+00 1.74570085660065e-01 2.00656665922555e-02 
1.46701388888889e+00 1.73836534544324e-01 2.02000641932564e-02 
1.48437500000000e+00 1.73101257979342e-01 2.03393840405335e-02 
1.50173611111111e+00 1.72362780756484e-01 2.04818700140401e-02 
1.51909722222222e+00 1.71621274247081e-01 2.06210697798168e-02 
1.53645833333333e+00 1.70876855558329e-01 2.07552836268014e-02 
1.55381944444444e+00 1.70129387771527e-01 2.08827658600728e-02 
1.57118055555556e+00 1.69379672340269e-01 2.10090669912814e-02 
1.58854166666667e+00 1.68627815068909e-01 2.11381477221606e-02 
1.60590277777778e+00 1.67873446616396e-01 2.12672692118569e-02 
1.62326388888889e+00 1.67116671461895e-01 2.13942962659965e-02 
1.64062500000000e+00 1.66357565077313e-01 2.15173202849343e-02 
1.65798611111111e+00 1.65596089448385e-01 2.16363477749235e-02 
1.67534722222222e+00 1.64832918963082e-01 2.17552577190457e-02 
1.69270833333333e+00 1.64067795712119e-01 2.18744699342240e-02 
1.71006944444444e+00 1.63300788581229e-01 2.19919203586675e-02 
1.72743055555556e+00 1.62532637974684e-01 2.21071129263261e-02 
1.74479166666667e+00 1.61763460186360e-01 2.22199688568932e-02 
1.76215277777778e+00 1.60993368478218e-01 2.23305275665642e-02 
1.77951388888889e+00 1.60222474103827e-01 2.24388156204760e-02 
1.79687500000000e+00 1.59450886491491e-01 2.25448080444935e-02 
1.81423611111111e+00 1.58678718160755e-01 2.26482838551272e-02 
1.83159722222222e+00 1.57906094962137e-01 2.27489537959689e-02 
1.84895833333333e+00 1.57133144666874e-01 2.28467560686043e-02 
1.86631944444444e+00 1.56359992069066e-01 2.29417598243387e-02 
1.88368055555556e+00 1.55586759140424e-01 2.30340091435134e-02 
1.90104166666667e+00 1.54813565343815e-01 2.31235742465985e-02 
1.91840277777778e+00 1.54040123527413e-01 2.32104963767713e-02 
1.93576388888889e+00 1.53266226432693e-01 2.32947998161129e-02 
1.95312500000000e+00 1.52491980330653e-01 2.33765195294258e-02 
1.97048611111111e+00 1.51717487406209e-01 2.34555702573809e-02 
1.98784722222222e+00 1.50942837129969e-01 2.35317740369133e-02 
2.00520833333333e+00 1.50168144090363e-01 2.36050907186231e-02 
2.02256944444445e+00 1.49393521459304e-01 2.36755815577958e-02 
2.03993055555556e+00 1.48619078438565e-01 2.37432867803681e-02 
2.05729166666667e+00 1.47844921669213e-01 2.38082473679918e-02 
2.07465277777778e+00 1.47071155344021e-01 2.38705051895172e-02 
2.09201388888889e+00 1.46297881587435e-01 2.39301022263268e-02 
2.10937500000000e+00 1.45525166587564e-01 2.39870358954336e-02 
2.12673611111111e+00 1.44752304384242e-01 2.40411528132661e-02 
2.14409722222222e+00 1.43979397327832e-01 2.40924148189428e-02 
2.16145833333333e+00 1.43206545130129e-01 2.41408755138308e-02 
2.17881944444445e+00 1.42433845423550e-01 2.41865753112663e-02 
2.19618055555556e+00 1.41661394198553e-01 2.42295080225685e-02 
2.21354166666667e+00 1.40889218726405e-01 2.42695349560346e-02 
2.23090277777778e+00 1.40117243052885e-01 2.43064440611253e-02 
2.24826388888889e+00 1.39345577662617e-01 2.43401501866388e-02 
2.26562500000000e+00 1.38574329999432e-01 2.43706758565809e-02 
2.28298611111111e+00 1.37803605783442e-01 2.43980628607229e-02 
2.30034722222222e+00 1.37033508501203e-01 2.44223599657709e-02 
2.31770833333333e+00 1.36264197362547e-01 2.44436062828121e-02 
2.33506944444445e+00 1.35495825748837e-01 2.44618412768217e-02 
2.35243055555556e+00 1.34728491595126e-01 2.44771177353066e-02 
2.36979166666667e+00 1.33962290398462e-01 2.44894870608957e-02 
2.38715277777778e+00 1.33197315640988e-01 2.44990001268035e-02 
2.40451388888889e+00 1.32433658411888e-01 2.45056596979529e-02 
2.42187500000000e+00 1.31672859680488e-01 2.45095095017163e-02 
2.43923611111111e+00 1.30915465203376e-01 2.45106452464364e-02 
2.45659722222222e+00 1.30161559596799e-01 2.45091298135717e-02 
2.47395833333333e+00 1.29411224842512e-01 2.45050075368609e-02 
2.49131944444445e+00 1.28664540515331e-01 2.44983226708522e-02 
2.50868055555556e+00 1.27921583611412e-01 2.44891901595039e-02 
2.52604166666667e+00 1.27180250915352e-01 2.44776297657757e-02 
2.54340277777778e+00 1.26440618778055e-01 2.44635738286187e-02 
2.56076388888889e+00 1.25702761650892e-01 2.44470697330378e-02 
2.57812500000000e+00 1.24966752156182e-01 2.44281635086259e-02 
2.59548611111111e+00 1.24232661054949e-01 2.44069092884739e-02 
2.61284722222222e+00 1.23500639775293e-01 2.43833617530929e-02 
2.63020833333333e+00 1.22771017140859e-01 2.43575843644474e-02 
2.64756944444445e+00 1.22043856156130e-01 2.43296453701479e-02 
2.66493055555556e+00 1.21319217997404e-01 2.42995870522024e-02 
2.68229166666667e+00 1.20597162212485e-01 2.42674484884120e-02 
2.69965277777778e+00 1.19877746737613e-01 2.42332841644619e-02 
2.71701388888889e+00 1.19161027926831e-01 2.41971797418632e-02 
2.73437500000000e+00 1.18447058755012e-01 2.41592229681844e-02 
2.75173611111111e+00 1.17735888554105e-01 2.41194695030712e-02 
2.76909722222222e+00 1.17027565169298e-01 2.40779536429758e-02 
2.78645833333333e+00 1.16322135159874e-01 2.40347021544410e-02 
2.80381944444445e+00 1.15619644100194e-01 2.39897452586651e-02 
2.82118055555556e+00 1.14919494066675e-01 2.39431179538947e-02 
2.83854166666667e+00 1.14221483882065e-01 2.38947776594810e-02 
2.85590277777778e+00 1.13525664783752e-01 2.38446725619824e-02 
2.87326388888889e+00 1.12832086315966e-01 2.37928047449966e-02 
2.89062500000000e+00 1.12140796780776e-01 2.37392079896274e-02 
2.90798611111111e+00 1.11451843403607e-01 2.36839297167874e-02 
2.92534722222222e+00 1.10765314590522e-01 2.36270379209299e-02 
2.94270833333333e+00 1.10081254711221e-01 2.35685889924850e-02 
2.96006944444445e+00 1.09399705153157e-01 2.35086142364039e-02 
2.97743055555556e+00 1.08720706323628e-01 2.34471402492697e-02 
2.99479166666667e+00 1.08044297706403e-01 2.33842053716031e-02 
3.01215277777778e+00 1.07370496640642e-01 2.33198777234477e-02 
3.02951388888889e+00 1.06699256728472e-01 2.32542577298536e-02 
3.04687500000000e+00 1.06030605256757e-01 2.31874672088372e-02 
3.06423611111111e+00 1.05364569820798e-01 2.31196053726138e-02 
3.08159722222222e+00 1.04701176891248e-01 2.30507091414986e-02 
3.09895833333333e+00 1.04040452489980e-01 2.29807992297465e-02 
3.11631944444445e+00 1.03382406558856e-01 2.29099080439644e-02 
3.13368055555556e+00 1.02727043948276e-01 2.28380684207165e-02 
3.15104166666667e+00 1.02074387879678e-01 2.27653064022715e-02 
3.16840277777778e+00 1.01424460794943e-01 2.26916455098459e-02 
3.18576388888889e+00 1.00777284377429e-01 2.26171126851666e-02 
3.20312500000000e+00 1.00132879301075e-01 2.25417487957364e-02 
3.22048611111111e+00 9.94919325000981e-02 2.24655828031793e-02 
3.23784722222222e+00 9.88547714006755e-02 2.23886487571291e-02 
3.25520833333333e+00 9.82214111226087e-02 2.23109030623492e-02 
3.27256944444445e+00 9.75918649820331e-02 2.22323218807997e-02 
3.28993055555556e+00 9.69661455139667e-02 2.21529238316619e-02 
3.30729166666667e+00 9.63442646256481e-02 2.20727562851595e-02 
3.32465277777778e+00 9.57247810980460e-02 2.19919490078971e-02 
3.34201388888889e+00 9.51075890929596e-02 2.19104298313463e-02 
3.35937500000000e+00 9.44927088088656e-02 2.18282110140891e-02 
3.37673611111111e+00 9.38801598524666e-02 2.17453128811588e-02 
3.39409722222222e+00 9.32699612846221e-02 2.16617524764686e-02 
3.41145833333333e+00 9.26621375538881e-02 2.15775483278852e-02 
3.42881944444445e+00 9.20567369397578e-02 2.14927536427937e-02 
3.44618055555556e+00 9.14537717230074e-02 2.14074519879131e-02 
3.46354166666667e+00 9.08532543888060e-02 2.13217015769901e-02 
3.48090277777778e+00 9.02551968591667e-02 2.12355284657946e-02 
3.49826388888889e+00 8.96596107397508e-02 2.11489448988805e-02 
3.51562500000000e+00 8.90664949203015e-02 2.10619648115151e-02 
3.53298611111111e+00 8.84758419071488e-02 2.09746017741806e-02 
3.55034722222222e+00 8.78876624176875e-02 2.08868676129867e-02 
3.56770833333333e+00 8.73019667775531e-02 2.07987756334853e-02 
3.58506944444445e+00 8.67187649322233e-02 2.07103417050366e-02 
3.60243055555556e+00 8.61380662517851e-02 2.06215944385685e-02 
3.61979166666667e+00 8.55598393413816e-02 2.05325696445387e-02 
3.63715277777778e+00 8.49840708877344e-02 2.04432899590082e-02 
3.65451388888889e+00 8.44107706356644e-02 2.03537940150130e-02 
3.67187500000000e+00 8.38399443300077e-02 2.02641367272440e-02 
3.68923611111111e+00 8.32715963247902e-02 2.01743453344297e-02 
3.70659722222222e+00 8.27057308319261e-02 2.00844266578563e-02 
3.72395833333333e+00 8.21420246271315e-02 1.99944200814863e-02 
3.74131944444445e+00 8.15804395863676e-02 1.99043054733536e-02 
3.75868055555556e+00 8.10209828803369e-02 1.98140599912424e-02 
3.77604166666667e+00 8.04636623192450e-02 1.97236749638560e-02 
3.79340277777778e+00 7.99084855866323e-02 1.96331648837548e-02 
3.81076388888889e+00 7.93554559627963e-02 1.95426035300056e-02 
3.82812500000000e+00 7.88045498269190e-02 1.94521510578047e-02 
3.84548611111111e+00 7.82557629275026e-02 1.93620101153511e-02 
3.86284722222222e+00 7.77090866935694e-02 1.92723351199326e-02 
3.88020833333333e+00 7.71645104750773e-02 1.91831711000579e-02 
3.89756944444445e+00 7.66220236919882e-02 1.90945143191029e-02 
3.91493055555556e+00 7.60816384043315e-02 1.90063664203073e-02 
3.93229166666667e+00 7.55433834892483e-02 1.89187491216083e-02 
3.94965277777778e+00 7.50072464802678e-02 1.88317205970933e-02 
3.96701388888889e+00 7.44732127331447e-02 1.87453473363359e-02 
3.98437500000000e+00 7.39412658890347e-02 1.86596535620205e-02 
4.00173611111111e+00 7.34113898558509e-02 1.85745321008444e-02 
4.01909722222222e+00 7.28837535266937e-02 1.84897131381010e-02 
4.03645833333333e+00 7.23584735665486e-02 1.84050629709686e-02 
4.05381944444445e+00 7.18355470803331e-02 1.83207143627067e-02 
4.07118055555556e+00 7.13149627934735e-02 1.82368108288159e-02 
4.08854166666667e+00 7.07967074019487e-02 1.81533846574113e-02 
4.10590277777778e+00 7.02807677610636e-02 1.80704595521352e-02 
4.12326388888889e+00 6.97665401315680e-02 1.79881252549587e-02 
4.14062500000000e+00 6.92539024358131e-02 1.79063007018791e-02 
4.15798611111111e+00 6.87428487674028e-02 1.78248471682362e-02 
4.17534722222222e+00 6.82333771654958e-02 1.77436749574029e-02 
4.19270833333333e+00 6.77254836613404e-02 1.76627251894229e-02 
4.21006944444445e+00 6.72192126843364e-02 1.75819320082466e-02 
4.22743055555556e+00 6.67151786850018e-02 1.75012598657100e-02 
4.24479166666667e+00 6.62133755884521e-02 1.74208099551805e-02 
4.26215277777778e+00 6.57137967930370e-02 1.73406015280648e-02 
4.27951388888889e+00 6.52164361461384e-02 1.72606321005416e-02 
4.29687500000000e+00 6.47212875420142e-02 1.71808911860959e-02 
4.31423611111111e+00 6.42283549706618e-02 1.71013422515486e-02 
4.33159722222222e+00 6.37376544646856e-02 1.70219803155801e-02 
4.34895833333333e+00 6.32491804390860e-02 1.69429021478101e-02 
4.36631944444445e+00 6.27629230255316e-02 1.68642172433850e-02 
4.38368055555556e+00 6.22788702589832e-02 1.67859592777260e-02 
4.40104166666667e+00 6.17970103033308e-02 1.67080568056311e-02 
4.41840277777778e+00 6.13172962927502e-02 1.66303321893505e-02 
4.43576388888889e+00 6.08396965426129e-02 1.65526780543359e-02 
4.45312500000000e+00 6.03642095064056e-02 1.64751377999708e-02 
4.47048611111111e+00 5.98908318456939e-02 1.63977462275355e-02 
4.48784722222222e+00 5.94195605752620e-02 1.63204980042486e-02 
4.50520833333333e+00 5.89503926613487e-02 1.62434113758773e-02 
4.52256944444445e+00 5.84832634363705e-02 1.61665420684253e-02 
4.53993055555556e+00 5.80181524970215e-02 1.60899849440418e-02 
4.55729166666667e+00 5.75550508673809e-02 1.60138592025370e-02 
4.57465277777778e+00 5.70939461953109e-02 1.59382243465086e-02 
4.59201388888889e+00 5.66348258680733e-02 1.58630809140332e-02 
4.60937500000000e+00 5.61776775678657e-02 1.57883949399230e-02 
4.62673611111111e+00 5.57224930272343e-02 1.57140918479753e-02 
4.64409722222222e+00 5.52692656836670e-02 1.56400063819263e-02 
4.66145833333333e+00 5.48179950948658e-02 1.55659164470637e-02 
4.67881944444445e+00 5.43686860966702e-02 1.54917252007942e-02 
4.69618055555556e+00 5.39213433113868e-02 1.54174189805100e-02 
4.71354166666667e+00 5.34759603139041e-02 1.53429031373867e-02 
4.73090277777778e+00 5.30325165417955e-02 1.52680390598681e-02 
4.74826388888889e+00 5.25910265048171e-02 1.51927531341838e-02 
4.76562500000000e+00 5.21515050350093e-02 1.51170349777756e-02 
4.78298611111111e+00 5.17139670605292e-02 1.50408917007206e-02 
4.80034722222222e+00 5.12784270041926e-02 1.49643325594316e-02 
4.81770833333333e+00 5.08449246097809e-02 1.48873632092562e-02 
4.83506944444445e+00 5.04134967560749e-02 1.48100151236965e-02 
4.85243055555556e+00 4.99841550159263e-02 1.47323374690465e-02 
4.86979166666667e+00 4.95569101757396e-02 1.46543662943142e-02 
4.88715277777778e+00 4.91317722693574e-02 1.45761205891293e-02 
4.90451388888889e+00 4.87087510000761e-02 1.44975961147053e-02 
4.92187500000000e+00 4.82878934337544e-02 1.44187825483030e-02 
4.93923611111111e+00 4.78692208421120e-02 1.43397112184724e-02 
4.95659722222222e+00 4.74527413047681e-02 1.42604217229249e-02 
4.97395833333333e+00 4.70384621629344e-02 1.41809293126601e-02 
4.99131944444445e+00 4.66263905979234e-02 1.41012430119524e-02 
5.00868055555556e+00 4.62165334208924e-02 1.40214519988835e-02 
5.02604166666667e+00 4.58084544953787e-02 1.39417357708041e-02 
5.04340277777778e+00 4.54021574612006e-02 1.38620677650989e-02 
5.06076388888889e+00 4.49976483130403e-02 1.37823912854717e-02 
5.07812500000000e+00 4.45949340355037e-02 1.37026941180317e-02 
5.09548611111111e+00 4.41940213650689e-02 1.36229835784435e-02 
5.11284722222222e+00 4.37949880779456e-02 1.35432595408222e-02 
5.13020833333333e+00 4.33980638676856e-02 1.34635325543965e-02 
5.14756944444445e+00 4.30032503323232e-02 1.33838779489690e-02 
5.16493055555556e+00 4.26105471719349e-02 1.33043407646068e-02 
5.18229166666667e+00 4.22199532986376e-02 1.32249369250239e-02 
5.19965277777778e+00 4.18314674361568e-02 1.31456813967451e-02 
5.21701388888889e+00 4.14450392851298e-02 1.30666233659837e-02 
5.23437500000000e+00 4.10606134857843e-02 1.29878160345819e-02 
5.25173611111111e+00 4.06781860742334e-02 1.29092723196742e-02 
5.26909722222222e+00 4.02977532171456e-02 1.28309885362660e-02 
5.28645833333333e+00 3.99193111368765e-02 1.27529639713539e-02 
5.30381944444445e+00 3.95428560170396e-02 1.26751928744938e-02 
5.32118055555556e+00 3.91682431265618e-02 1.25976829939945e-02 
5.33854166666667e+00 3.87954161046327e-02 1.25204250319565e-02 
5.35590277777778e+00 3.84243738379335e-02 1.24434062266919e-02 
5.37326388888889e+00 3.80551156045665e-02 1.23666186010689e-02 
5.39062500000000e+00 3.76876407056451e-02 1.22900636257940e-02 
