Energy(eV)           EEDF(eV^-(3/2))      Anisotropy(eV^-(3/2))
7.23379629629630e-03 7.18344675925222e-01 7.42243853771986e-02 
2.17013888888889e-02 7.11170833745083e-01 5.03223587205609e-02 
3.61689814814815e-02 7.01775542526089e-01 7.89867945646506e-02 
5.06365740740741e-02 6.91401701697347e-01 9.89327636121335e-02 
6.51041666666667e-02 6.80696777893334e-01 1.13582561741597e-01 
7.95717592592593e-02 6.70061415587992e-01 1.24498554554183e-01 
9.40393518518519e-02 6.59629901651899e-01 1.31471995608198e-01 
1.08506944444444e-01 6.49791788213790e-01 1.35239000764556e-01 
1.22974537037037e-01 6.40488770075282e-01 1.37086488369456e-01 
1.37442129629630e-01 6.31577784000234e-01 1.38484890129929e-01 
1.51909722222222e-01 6.22931901378949e-01 1.39939651773360e-01 
1.66377314814815e-01 6.14725800970030e-01 1.40385391670762e-01 
1.80844907407407e-01 6.07093591009621e-01 1.39771261117886e-01 
1.95312500000000e-01 5.99883750487144e-01 1.39127576143533e-01 
2.09780092592593e-01 5.93047201835438e-01 1.38544204776765e-01 
2.24247685185185e-01 5.86452216379916e-01 1.37786157924779e-01 
2.38715277777778e-01 5.80104534545966e-01 1.36980821354376e-01 
2.53182870370370e-01 5.73996993829238e-01 1.37567624731600e-01 
2.67650462962963e-01 5.68052226959087e-01 1.40004439072051e-01 
2.82118055555556e-01 5.62254539363971e-01 1.41567146040006e-01 
2.96585648148148e-01 5.56736888989984e-01 1.40619279466863e-01 
3.11053240740741e-01 5.51515087052915e-01 1.38150779395394e-01 
3.25520833333333e-01 5.46514863175891e-01 1.34799317983336e-01 
3.39988425925926e-01 5.41681212875187e-01 1.30523204691050e-01 
3.54456018518519e-01 5.37198735088591e-01 1.26003034515637e-01 
3.68923611111111e-01 5.32942073865006e-01 1.22673571329882e-01 
3.83391203703704e-01 5.28825081371965e-01 1.21277316683679e-01 
3.97858796296296e-01 5.24775709718418e-01 1.20241182261051e-01 
4.12326388888889e-01 5.20833704343528e-01 1.17965344688292e-01 
4.26793981481482e-01 5.17024574441662e-01 1.15545407603170e-01 
4.41261574074074e-01 5.13320016790787e-01 1.12451786320923e-01 
4.55729166666667e-01 5.09557671676849e-01 1.08048132336065e-01 
4.70196759259259e-01 5.06126750781685e-01 1.03963516313652e-01 
4.84664351851852e-01 5.02919016890809e-01 1.01230802702322e-01 
4.99131944444445e-01 4.99816249959701e-01 1.00119018695531e-01 
5.13599537037037e-01 4.96737773915924e-01 1.00303025270762e-01 
5.28067129629630e-01 4.93669194365705e-01 1.00001337818721e-01 
5.42534722222222e-01 4.90646825473362e-01 9.91710453834766e-02 
5.57002314814815e-01 4.87665703911908e-01 9.74973485710726e-02 
5.71469907407407e-01 4.84634316401721e-01 9.42585080782584e-02 
5.85937500000000e-01 4.81699149891838e-01 9.09887950355862e-02 
6.00405092592593e-01 4.79045701911436e-01 8.95031728309179e-02 
6.14872685185185e-01 4.76427720567998e-01 8.97172604980094e-02 
6.29340277777778e-01 4.73833008098964e-01 8.99400656627333e-02 
6.43807870370370e-01 4.71285573424112e-01 8.96148645677801e-02 
6.58275462962963e-01 4.68792677677650e-01 8.93133224745567e-02 
6.72743055555556e-01 4.66345108035711e-01 8.90294008118475e-02 
6.87210648148148e-01 4.63950521538278e-01 8.74995526757232e-02 
7.01678240740741e-01 4.61415454324793e-01 8.51085554587917e-02 
7.16145833333333e-01 4.59199681447751e-01 8.39895600121294e-02 
7.30613425925926e-01 4.57000280553034e-01 8.45789936057740e-02 
7.45081018518519e-01 4.54790538440376e-01 8.50039050270649e-02 
7.59548611111111e-01 4.52589148894625e-01 8.51631600771615e-02 
7.74016203703704e-01 4.50391353740053e-01 8.54788210068863e-02 
7.88483796296296e-01 4.48193899699456e-01 8.52433422905159e-02 
8.02951388888889e-01 4.45895036846516e-01 8.40199202458936e-02 
8.17418981481482e-01 4.43637196174458e-01 8.29704807430653e-02 
8.31886574074074e-01 4.41468258948438e-01 8.31331168927926e-02 
8.46354166666667e-01 4.39242991073276e-01 8.40518897136995e-02 
8.60821759259259e-01 4.36954101754015e-01 8.50514674679592e-02 
8.75289351851852e-01 4.34602883224954e-01 8.59814190908126e-02 
8.89756944444445e-01 4.32190190508085e-01 8.68778961225282e-02 
9.04224537037037e-01 4.29715492258335e-01 8.72429013540109e-02 
9.18692129629630e-01 4.27080669602594e-01 8.70278000225971e-02 
9.33159722222222e-01 4.24570058433363e-01 8.73431236065559e-02 
9.47627314814815e-01 4.22062341151432e-01 8.84995393183651e-02 
9.62094907407408e-01 4.19511127420518e-01 8.99282282271251e-02 
9.76562500000000e-01 4.16913108561674e-01 9.13971854938141e-02 
9.91030092592593e-01 4.14268991952012e-01 9.28563814404098e-02 
1.00549768518519e+00 4.11578318240690e-01 9.43319603841495e-02 
1.01996527777778e+00 4.08824195834985e-01 9.55962034817449e-02 
1.03443287037037e+00 4.05945184458679e-01 9.64982864654868e-02 
1.04890046296296e+00 4.03054967218800e-01 9.75498032656939e-02 
1.06336805555556e+00 4.00149622484458e-01 9.90161107107809e-02 
1.07783564814815e+00 3.97176423210702e-01 1.00601952155060e-01 
1.09230324074074e+00 3.94135647970473e-01 1.02157147662564e-01 
1.10677083333333e+00 3.91027243793376e-01 1.03690066748987e-01 
1.12123842592593e+00 3.87852386282053e-01 1.05211044793604e-01 
1.13570601851852e+00 3.84610358027768e-01 1.06591434612973e-01 
1.15017361111111e+00 3.81258175789909e-01 1.07799161074104e-01 
1.16464120370370e+00 3.77890054990719e-01 1.09139856431348e-01 
1.17910879629630e+00 3.74461430748184e-01 1.10624931092861e-01 
1.19357638888889e+00 3.70962659914246e-01 1.12100222340812e-01 
1.20804398148148e+00 3.67393014640566e-01 1.13542156281200e-01 
1.22251157407407e+00 3.63751241557060e-01 1.14947416607743e-01 
1.23697916666667e+00 3.60036890083331e-01 1.16254748064891e-01 
1.25144675925926e+00 3.56229797054219e-01 1.17443607470441e-01 
1.26591435185185e+00 3.52376416463418e-01 1.18620028748842e-01 
1.28038194444444e+00 3.48454005690084e-01 1.19763004973137e-01 
1.29484953703704e+00 3.44462952707213e-01 1.20800271264891e-01 
1.30931712962963e+00 3.40404703087231e-01 1.21715455918328e-01 
1.32378472222222e+00 3.36280642718286e-01 1.22495846204760e-01 
1.33825231481481e+00 3.32093773901763e-01 1.23119313256504e-01 
1.35271990740741e+00 3.27841777955396e-01 1.23564244207178e-01 
1.36718750000000e+00 3.23536242876028e-01 1.23851831059953e-01 
1.38165509259259e+00 3.19186653876870e-01 1.24002421399246e-01 
1.39612268518519e+00 3.14789698083608e-01 1.23995334028338e-01 
1.41059027777778e+00 3.10350532367987e-01 1.23817056895342e-01 
1.42505787037037e+00 3.05874231920191e-01 1.23470973608550e-01 
1.43952546296296e+00 3.01365338278299e-01 1.22955072106828e-01 
1.45399305555556e+00 2.96826875812657e-01 1.22274826065213e-01 
1.46846064814815e+00 2.92269385284915e-01 1.21455494691147e-01 
1.48292824074074e+00 2.87698372856936e-01 1.20519612860146e-01 
1.49739583333333e+00 2.83117602730733e-01 1.19475072640152e-01 
1.51186342592593e+00 2.78536773170525e-01 1.18332997518179e-01 
1.52633101851852e+00 2.73972044381662e-01 1.17108730417922e-01 
1.54079861111111e+00 2.69427854039507e-01 1.15814128770488e-01 
1.55526620370370e+00 2.64908895089808e-01 1.14465180019709e-01 
1.56973379629630e+00 2.60421022067102e-01 1.13083105754110e-01 
1.58420138888889e+00 2.55968948024995e-01 1.11678940571722e-01 
1.59866898148148e+00 2.51555034232746e-01 1.10258567239799e-01 
1.61313657407407e+00 2.47187809419549e-01 1.08825575176952e-01 
1.62760416666667e+00 2.42874064789166e-01 1.07382296712288e-01 
1.64207175925926e+00 2.38618118087547e-01 1.05928770359683e-01 
1.65653935185185e+00 2.34419740696410e-01 1.04464656778318e-01 
1.67100694444444e+00 2.30280353806793e-01 1.02990506305876e-01 
1.68547453703704e+00 2.26201965472965e-01 1.01500883169641e-01 
1.69994212962963e+00 2.22182088769301e-01 9.99903736224260e-02 
1.71440972222222e+00 2.18229694506883e-01 9.84526895828317e-02 
1.72887731481482e+00 2.14350767164600e-01 9.68804475689734e-02 
1.74334490740741e+00 2.10545813486778e-01 9.52699361415604e-02 
1.75781250000000e+00 2.06814539718959e-01 9.36229863613763e-02 
1.77228009259259e+00 2.03156926244611e-01 9.19392266839310e-02 
1.78674768518519e+00 1.99573822510984e-01 9.02184836308282e-02 
1.80121527777778e+00 1.96065335829884e-01 8.84687903718913e-02 
1.81568287037037e+00 1.92631716750808e-01 8.67000127265579e-02 
1.83015046296296e+00 1.89274457808232e-01 8.49226390930177e-02 
1.84461805555556e+00 1.85992764205939e-01 8.31507180761680e-02 
1.85908564814815e+00 1.82787140361914e-01 8.13999116620479e-02 
1.87355324074074e+00 1.79657256413271e-01 7.96830490427948e-02 
1.88802083333333e+00 1.76602166127324e-01 7.80105594553529e-02 
1.90248842592593e+00 1.73621531594477e-01 7.63914374593715e-02 
1.91695601851852e+00 1.70720779965391e-01 7.48243232128366e-02 
1.93142361111111e+00 1.67901983994317e-01 7.33092119696287e-02 
1.94589120370370e+00 1.65164376731255e-01 7.18447803755315e-02 
1.96035879629630e+00 1.62504635009687e-01 7.04247521798174e-02 
1.97482638888889e+00 1.59923090736356e-01 6.90405984320760e-02 
1.98929398148148e+00 1.57416273828992e-01 6.76866395712998e-02 
2.00376157407407e+00 1.54984103392106e-01 6.63587249259481e-02 
2.01822916666667e+00 1.52624507820562e-01 6.50514673607982e-02 
2.03269675925926e+00 1.50333993445295e-01 6.37641795611927e-02 
2.04716435185185e+00 1.48113202491353e-01 6.24979030436049e-02 
2.06163194444444e+00 1.45956630519136e-01 6.12539501025264e-02 
2.07609953703704e+00 1.43864505011649e-01 6.00338395105044e-02 
2.09056712962963e+00 1.41831999172889e-01 5.88402861956306e-02 
2.10503472222222e+00 1.39857645343564e-01 5.76727881932815e-02 
2.11950231481481e+00 1.37931015319428e-01 5.65336725321491e-02 
2.13396990740741e+00 1.36047913376280e-01 5.54221851205949e-02 
2.14843750000000e+00 1.34208718785530e-01 5.43370040689713e-02 
2.16290509259259e+00 1.32410736414224e-01 5.32741911642481e-02 
2.17737268518519e+00 1.30653785375767e-01 5.22329616291108e-02 
2.19184027777778e+00 1.28938732905021e-01 5.12147373896862e-02 
2.20630787037037e+00 1.27263687215638e-01 5.02178294373268e-02 
2.22077546296296e+00 1.25625506260167e-01 4.92426209180541e-02 
2.23524305555556e+00 1.24024265915946e-01 4.82927978499154e-02 
2.24971064814815e+00 1.22459941758889e-01 4.73711845743484e-02 
2.26417824074074e+00 1.20931384646901e-01 4.64795333928751e-02 
2.27864583333333e+00 1.19437512280527e-01 4.56231869440226e-02 
2.29311342592593e+00 1.17977889138028e-01 4.48036569091085e-02 
2.30758101851852e+00 1.16548855461536e-01 4.40188334004132e-02 
2.32204861111111e+00 1.15150080144010e-01 4.32686596168727e-02 
2.33651620370370e+00 1.13779310295414e-01 4.25521195136919e-02 
2.35098379629630e+00 1.12433736733597e-01 4.18646118590968e-02 
2.36545138888889e+00 1.11112113275188e-01 4.12055584845536e-02 
2.37991898148148e+00 1.09813350564393e-01 4.05745848386638e-02 
2.39438657407407e+00 1.08535883394549e-01 3.99670098075003e-02 
2.40885416666667e+00 1.07278837105575e-01 3.93801685943986e-02 
2.42332175925926e+00 1.06043509359122e-01 3.88141439588624e-02 
2.43778935185185e+00 1.04829135524505e-01 3.82679114294169e-02 
2.45225694444444e+00 1.03635356344983e-01 3.77410451245575e-02 
2.46672453703704e+00 1.02462624409843e-01 3.72368837646399e-02 
2.48119212962963e+00 1.01310782892812e-01 3.67570608747086e-02 
2.49565972222222e+00 1.00178356097281e-01 3.63014556339961e-02 
2.51012731481482e+00 9.90649242009030e-02 3.58695137062011e-02 
2.52459490740741e+00 9.79672180782843e-02 3.54574384970326e-02 
2.53906250000000e+00 9.68841796013543e-02 3.50609607643019e-02 
2.55353009259259e+00 9.58150398459810e-02 3.46800720831371e-02 
2.56799768518519e+00 9.47590572063298e-02 3.43140508950574e-02 
2.58246527777778e+00 9.37151458226037e-02 3.39591398281491e-02 
2.59693287037037e+00 9.26820388346202e-02 3.36120139188117e-02 
2.61140046296296e+00 9.16601811793372e-02 3.32710122623929e-02 
2.62586805555556e+00 9.06483916008757e-02 3.29329093485805e-02 
2.64033564814815e+00 8.96467251718521e-02 3.25953179597218e-02 
2.65480324074074e+00 8.86557708435342e-02 3.22592498543534e-02 
2.66927083333333e+00 8.76754417746876e-02 3.19248720991439e-02 
2.68373842592593e+00 8.67058034437798e-02 3.15924950367165e-02 
2.69820601851852e+00 8.57472733560510e-02 3.12649455348249e-02 
2.71267361111111e+00 8.48002967200571e-02 3.09449050384755e-02 
2.72714120370370e+00 8.38642413055174e-02 3.06330635745686e-02 
2.74160879629630e+00 8.29390271250993e-02 3.03307695007298e-02 
2.75607638888889e+00 8.20246793155423e-02 3.00391801187496e-02 
2.77054398148148e+00 8.11200932165348e-02 2.97562354479279e-02 
2.78501157407407e+00 8.02248304542072e-02 2.94801944654979e-02 
2.79947916666667e+00 7.93388037405006e-02 2.92102670228853e-02 
2.81394675925926e+00 7.84594298669965e-02 2.89443537811739e-02 
2.82841435185185e+00 7.75859818774978e-02 2.86801253263774e-02 
2.84288194444444e+00 7.67184962857207e-02 2.84168274590679e-02 
2.85734953703704e+00 7.58571407864562e-02 2.81530893269330e-02 
2.87181712962963e+00 7.50013825132151e-02 2.78874637024816e-02 
2.88628472222222e+00 7.41517344130105e-02 2.76208030030068e-02 
2.90075231481482e+00 7.33085750156784e-02 2.73544161764069e-02 
2.91521990740741e+00 7.24716551854060e-02 2.70886356809912e-02 
2.92968750000000e+00 7.16414215194341e-02 2.68248614472314e-02 
2.94415509259259e+00 7.08178986091357e-02 2.65646155306721e-02 
2.95862268518519e+00 7.00009256146046e-02 2.63079843212134e-02 
2.97309027777778e+00 6.91902590561280e-02 2.60549627547699e-02 
2.98755787037037e+00 6.83859714382324e-02 2.58056215431738e-02 
3.00202546296296e+00 6.75871846875746e-02 2.55594186745675e-02 
3.01649305555556e+00 6.67936004750492e-02 2.53157185392265e-02 
3.03096064814815e+00 6.60053938069212e-02 2.50746445743634e-02 
3.04542824074074e+00 6.52223512320845e-02 2.48353585441425e-02 
3.05989583333333e+00 6.44442417340753e-02 2.45962754319075e-02 
3.07436342592593e+00 6.36710122972989e-02 2.43569940355486e-02 
3.08883101851852e+00 6.29028395324996e-02 2.41171650967189e-02 
3.10329861111111e+00 6.21397713669960e-02 2.38751215142001e-02 
3.11776620370370e+00 6.13819958191232e-02 2.36291804086513e-02 
3.13223379629630e+00 6.06299195576678e-02 2.33799697001025e-02 
3.14670138888889e+00 5.98836588425248e-02 2.31297645094959e-02 
3.16116898148148e+00 5.91431722226854e-02 2.28799160455750e-02 
3.17563657407407e+00 5.84086167803493e-02 2.26309150507006e-02 
3.19010416666667e+00 5.76799659271827e-02 2.23827801667268e-02 
3.20457175925926e+00 5.69568767305093e-02 2.21356439692091e-02 
3.21903935185185e+00 5.62398287109698e-02 2.18902233696570e-02 
3.23350694444444e+00 5.55288582188818e-02 2.16463787311875e-02 
3.24797453703704e+00 5.48238833629127e-02 2.14019150119133e-02 
3.26244212962963e+00 5.41249237924984e-02 2.11547623778908e-02 
3.27690972222222e+00 5.34321415609900e-02 2.09044141582516e-02 
3.29137731481482e+00 5.27456129364441e-02 2.06508997916177e-02 
3.30584490740741e+00 5.20654975372420e-02 2.03943916343656e-02 
3.32031250000000e+00 5.13916072735197e-02 2.01351824126110e-02 
3.33478009259259e+00 5.07241041018253e-02 1.98726659381775e-02 
3.34924768518519e+00 5.00631276165224e-02 1.96061691820951e-02 
3.36371527777778e+00 4.94088839573145e-02 1.93357451050996e-02 
3.37818287037037e+00 4.87615975178133e-02 1.90617066409206e-02 
3.39265046296296e+00 4.81214066507478e-02 1.87840502090402e-02 
3.40711805555556e+00 4.74884696052711e-02 1.85034874162017e-02 
3.42158564814815e+00 4.68628831704359e-02 1.82217211750165e-02 
3.43605324074074e+00 4.62446874595121e-02 1.79395437932913e-02 
3.45052083333333e+00 4.56339237990442e-02 1.76568430125409e-02 
3.46498842592593e+00 4.50306669625685e-02 1.73736257675231e-02 
3.47945601851852e+00 4.44350136663621e-02 1.70899514418015e-02 
3.49392361111111e+00 4.38470175422733e-02 1.68058636953251e-02 
3.50839120370370e+00 4.32667635148246e-02 1.65214805764899e-02 
3.52285879629630e+00 4.26943536197924e-02 1.62370025216966e-02 
3.53732638888889e+00 4.21298740698794e-02 1.59523586650974e-02 
3.55179398148148e+00 4.15733961261567e-02 1.56671417929225e-02 
3.56626157407407e+00 4.10249109458161e-02 1.53823620561031e-02 
3.58072916666667e+00 4.04848361656783e-02 1.51008264299243e-02 
3.59519675925926e+00 3.99533287712602e-02 1.48253435025412e-02 
3.60966435185185e+00 3.94304510707403e-02 1.45580807300514e-02 
3.62413194444445e+00 3.89162134207110e-02 1.42994001056442e-02 
3.63859953703704e+00 3.84098411221047e-02 1.40473392928218e-02 
3.65306712962963e+00 3.79119698934056e-02 1.37996516886122e-02 
3.66753472222222e+00 3.74224708892242e-02 1.35560058606374e-02 
3.68200231481482e+00 3.69412111426952e-02 1.33162933821462e-02 
3.69646990740741e+00 3.64680600124033e-02 1.30804664336338e-02 
3.71093750000000e+00 3.60029018719090e-02 1.28487739353849e-02 
3.72540509259259e+00 3.55455619496974e-02 1.26215623969733e-02 
3.73987268518519e+00 3.50958417245329e-02 1.23985823130887e-02 
3.75434027777778e+00 3.46536141224860e-02 1.21789816220176e-02 
3.76880787037037e+00 3.42187945499207e-02 1.19621037453285e-02 
3.78327546296296e+00 3.37913085939607e-02 1.17477869639462e-02 
3.79774305555556e+00 3.33710660824918e-02 1.15360759629280e-02 
3.81221064814815e+00 3.29579546651819e-02 1.13271662563182e-02 
3.82667824074074e+00 3.25519281630214e-02 1.11212593207462e-02 
3.84114583333333e+00 3.21528825511058e-02 1.09183865368322e-02 
3.85561342592593e+00 3.17607196915485e-02 1.07184531151125e-02 
3.87008101851852e+00 3.13753515615223e-02 1.05213800222811e-02 
3.88454861111111e+00 3.09966979700803e-02 1.03270989189282e-02 
3.89901620370370e+00 3.06245551746881e-02 1.01357391298153e-02 
3.91348379629630e+00 3.02588915352996e-02 9.94772564186831e-03 
3.92795138888889e+00 2.98996641318303e-02 9.76347864070416e-03 
3.94241898148148e+00 2.95467461426834e-02 9.58304065486242e-03 
3.95688657407407e+00 2.92000124551684e-02 9.40644356172435e-03 
3.97135416666667e+00 2.88593611185163e-02 9.23383595525231e-03 
3.98582175925926e+00 2.85249355637488e-02 9.06512853603921e-03 
4.00028935185185e+00 2.81965899426291e-02 8.90032232401844e-03 
4.01475694444444e+00 2.78741865118402e-02 8.73951438273541e-03 
4.02922453703704e+00 2.75575808441970e-02 8.58280521524446e-03 
4.04369212962963e+00 2.72466187303465e-02 8.43016390047394e-03 
4.05815972222222e+00 2.69411619422994e-02 8.28150769629871e-03 
4.07262731481481e+00 2.66412968668550e-02 8.13667844110974e-03 
4.08709490740741e+00 2.63468760386924e-02 7.99567747919364e-03 
4.10156250000000e+00 2.60577498255326e-02 7.85847199845711e-03 
4.11603009259259e+00 2.57736830016922e-02 7.72489642966755e-03 
4.13049768518519e+00 2.54944890422186e-02 7.59468653959458e-03 
4.14496527777778e+00 2.52200558480417e-02 7.46759687287088e-03 
4.15943287037037e+00 2.49502709043289e-02 7.34345630681324e-03 
4.17390046296296e+00 2.46850267555225e-02 7.22221706137325e-03 
4.18836805555556e+00 2.44242136736278e-02 7.10390308157582e-03 
4.20283564814815e+00 2.41677207143862e-02 6.98855094537607e-03 
4.21730324074074e+00 2.39155249660846e-02 6.87621253911864e-03 
4.23177083333333e+00 2.36675468105078e-02 6.76693190930737e-03 
4.24623842592593e+00 2.34236573717386e-02 6.66066800096299e-03 
4.26070601851852e+00 2.31837325349168e-02 6.55740979670931e-03 
4.27517361111111e+00 2.29476568020142e-02 6.45721114537378e-03 
4.28964120370370e+00 2.27153128237990e-02 6.36006653086764e-03 
4.30410879629630e+00 2.24865860586644e-02 6.26590565536945e-03 
4.31857638888889e+00 2.22613662052013e-02 6.17465984137958e-03 
4.33304398148148e+00 2.20395445966169e-02 6.08627360870513e-03 
4.34751157407407e+00 2.18210167604234e-02 6.00063850343060e-03 
4.36197916666667e+00 2.16056814910208e-02 5.91758228778482e-03 
4.37644675925926e+00 2.13934443595787e-02 5.83698701679207e-03 
4.39091435185185e+00 2.11842133550872e-02 5.75879654732705e-03 
4.40538194444444e+00 2.09778981642677e-02 5.68292037960569e-03 
4.41984953703704e+00 2.07744030582156e-02 5.60924023540025e-03 
4.43431712962963e+00 2.05736940780962e-02 5.53766689446874e-03 
4.44878472222222e+00 2.03757535276444e-02 5.46814914388024e-03 
4.46325231481482e+00 2.01805017322495e-02 5.40065070534882e-03 
4.47771990740741e+00 1.99878611381379e-02 5.33512973297081e-03 
4.49218750000000e+00 1.97977556279922e-02 5.27154598292756e-03 
