Energy(eV)           EEDF(eV^-(3/2))      Anisotropy(eV^-(3/2))
8.68055555555556e-03 3.90637167727055e-01 1.31556232868836e-02 
2.60416666666667e-02 3.89902620139491e-01 1.09606649740363e-02 
4.34027777777778e-02 3.88535905687040e-01 2.12893055485243e-02 
6.07638888888889e-02 3.86723599385482e-01 2.97752182218366e-02 
7.81250000000000e-02 3.84697441947014e-01 3.57604419920765e-02 
9.54861111111111e-02 3.82578890808872e-01 3.97374004019343e-02 
1.12847222222222e-01 3.80490639469271e-01 4.22014987932836e-02 
1.30208333333333e-01 3.78452870717769e-01 4.37482357330855e-02 
1.47569444444444e-01 3.76429160154953e-01 4.54207731922711e-02 
1.64930555555556e-01 3.74400365227409e-01 4.74156491548264e-02 
1.82291666666667e-01 3.72415870688117e-01 4.84752291632251e-02 
1.99652777777778e-01 3.70500956651453e-01 4.88560458952790e-02 
2.17013888888889e-01 3.68625897161700e-01 4.93603647833596e-02 
2.34375000000000e-01 3.66772310562029e-01 4.96239046019424e-02 
2.51736111111111e-01 3.64956989450635e-01 4.96819178316190e-02 
2.69097222222222e-01 3.63188488844772e-01 5.12517824693547e-02 
2.86458333333333e-01 3.61367347527215e-01 5.42532100174806e-02 
3.03819444444445e-01 3.59507887350053e-01 5.52959776945408e-02 
3.21180555555556e-01 3.57708611502855e-01 5.42388924299154e-02 
3.38541666666667e-01 3.55907241121072e-01 5.29558310432224e-02 
3.55902777777778e-01 3.54225800663603e-01 5.14468130702545e-02 
3.73263888888889e-01 3.52612392316597e-01 4.99146270635963e-02 
3.90625000000000e-01 3.51049809283660e-01 5.01571971275345e-02 
4.07986111111111e-01 3.49429841517174e-01 5.20548916265428e-02 
4.25347222222222e-01 3.47754122947170e-01 5.29075903152172e-02 
4.42708333333333e-01 3.46087226111856e-01 5.19413961732824e-02 
4.60069444444445e-01 3.44291072854278e-01 4.98318445327781e-02 
4.77430555555556e-01 3.42760504161057e-01 4.78804728206365e-02 
4.94791666666667e-01 3.41276404723464e-01 4.70069712658615e-02 
5.12152777777778e-01 3.39818348913082e-01 4.75002938792491e-02 
5.29513888888889e-01 3.38309135198939e-01 4.93739706993824e-02 
5.46875000000000e-01 3.36739773186059e-01 5.04592217019333e-02 
5.64236111111111e-01 3.35168499920620e-01 4.91994261088858e-02 
5.81597222222222e-01 3.33442016388874e-01 4.67282401695679e-02 
5.98958333333333e-01 3.32043495663733e-01 4.50817006707557e-02 
6.16319444444445e-01 3.30666766662418e-01 4.56031988701474e-02 
6.33680555555556e-01 3.29278269444621e-01 4.70896802384214e-02 
6.51041666666667e-01 3.27869130053138e-01 4.81606931818369e-02 
6.68402777777778e-01 3.26476314532038e-01 4.86066941033018e-02 
6.85763888888889e-01 3.25101453034005e-01 4.77407830051094e-02 
7.03125000000000e-01 3.23595237268041e-01 4.58020013690158e-02 
7.20486111111111e-01 3.22380230128177e-01 4.48568735356113e-02 
7.37847222222222e-01 3.21158853979479e-01 4.55677115412343e-02 
7.55208333333333e-01 3.19916964464905e-01 4.64209241914919e-02 
7.72569444444445e-01 3.18661330016607e-01 4.70642463825406e-02 
7.89930555555556e-01 3.17396984978661e-01 4.67003474171929e-02 
8.07291666666667e-01 3.15994656220894e-01 4.52774412909222e-02 
8.24652777777778e-01 3.14738331717705e-01 4.44161636300719e-02 
8.42013888888889e-01 3.13475756937781e-01 4.48768214373311e-02 
8.59375000000000e-01 3.12147060512120e-01 4.58063802732062e-02 
8.76736111111111e-01 3.10742302562069e-01 4.68385138753844e-02 
8.94097222222222e-01 3.09261463112723e-01 4.75540642522627e-02 
9.11458333333334e-01 3.07685977540268e-01 4.76239937157531e-02 
9.28819444444445e-01 3.06079016134128e-01 4.75752727154853e-02 
9.46180555555556e-01 3.04529092532694e-01 4.81338780155422e-02 
9.63541666666667e-01 3.02939263518224e-01 4.91389903035129e-02 
9.80902777777778e-01 3.01304092990410e-01 5.02586020184383e-02 
9.98263888888889e-01 2.99620604093960e-01 5.13695446701510e-02 
1.01562500000000e+00 2.97888962507946e-01 5.22530211459571e-02 
1.03298611111111e+00 2.96078834790435e-01 5.27915993466165e-02 
1.05034722222222e+00 2.94241790466997e-01 5.33578617987526e-02 
1.06770833333333e+00 2.92402489082903e-01 5.42869868018340e-02 
1.08506944444444e+00 2.90509755852425e-01 5.53820844467176e-02 
1.10243055555556e+00 2.88563216583993e-01 5.64512321163083e-02 
1.11979166666667e+00 2.86564055956235e-01 5.74909030985449e-02 
1.13715277777778e+00 2.84512349135391e-01 5.83871521619346e-02 
1.15451388888889e+00 2.82379594609917e-01 5.91394019064741e-02 
1.17187500000000e+00 2.80240327881087e-01 6.00513796283031e-02 
1.18923611111111e+00 2.78045621915605e-01 6.11038710125899e-02 
1.20659722222222e+00 2.75794543094708e-01 6.21371215149240e-02 
1.22395833333333e+00 2.73493483069582e-01 6.31208511470536e-02 
1.24131944444444e+00 2.71137930421334e-01 6.40150158717748e-02 
1.25868055555556e+00 2.68731736502807e-01 6.48582831551695e-02 
1.27604166666667e+00 2.66293496420742e-01 6.57300088975256e-02 
1.29340277777778e+00 2.63807610156899e-01 6.65898147452908e-02 
1.31076388888889e+00 2.61275818665870e-01 6.73792606590432e-02 
1.32812500000000e+00 2.58702861466792e-01 6.80894060020668e-02 
1.34548611111111e+00 2.56090810771286e-01 6.86921820438515e-02 
1.36284722222222e+00 2.53435057479515e-01 6.91807706147848e-02 
1.38020833333333e+00 2.50756123254018e-01 6.96014234259468e-02 
1.39756944444444e+00 2.48046001961468e-01 6.99450924393208e-02 
1.41493055555556e+00 2.45308076591167e-01 7.01826486491789e-02 
1.43229166666667e+00 2.42545742246352e-01 7.03124635814964e-02 
1.44965277777778e+00 2.39762121682235e-01 7.03302121907873e-02 
1.46701388888889e+00 2.36959829370503e-01 7.02451386368472e-02 
1.48437500000000e+00 2.34147272580822e-01 7.00797830622666e-02 
1.50173611111111e+00 2.31324928934168e-01 6.98420261620470e-02 
1.51909722222222e+00 2.28500365663935e-01 6.95360211939722e-02 
1.53645833333333e+00 2.25679371788145e-01 6.91708350867060e-02 
1.55381944444444e+00 2.22864836616229e-01 6.87559923642977e-02 
1.57118055555556e+00 2.20060701857832e-01 6.83061720709612e-02 
1.58854166666667e+00 2.17270207721377e-01 6.78319349529022e-02 
1.60590277777778e+00 2.14495132158221e-01 6.73366581123397e-02 
1.62326388888889e+00 2.11741343917071e-01 6.68207351550522e-02 
1.64062500000000e+00 2.09011701447189e-01 6.62825242129022e-02 
1.65798611111111e+00 2.06307000229866e-01 6.57208737853901e-02 
1.67534722222222e+00 2.03629567288967e-01 6.51361671383944e-02 
1.69270833333333e+00 2.00980145007300e-01 6.45246392475395e-02 
1.71006944444444e+00 1.98359196025380e-01 6.38808897599386e-02 
1.72743055555556e+00 1.95775556978521e-01 6.31984297487075e-02 
1.74479166666667e+00 1.93229698395549e-01 6.24728447601525e-02 
1.76215277777778e+00 1.90722426495237e-01 6.17023159983484e-02 
1.77951388888889e+00 1.88254914301152e-01 6.08872502361691e-02 
1.79687500000000e+00 1.85828211790949e-01 6.00312267183288e-02 
1.81423611111111e+00 1.83443334582259e-01 5.91417632537069e-02 
1.83159722222222e+00 1.81101645625935e-01 5.82284437129169e-02 
1.84895833333333e+00 1.78803579499266e-01 5.73041779890531e-02 
1.86631944444444e+00 1.76549789133071e-01 5.63837571643732e-02 
1.88368055555556e+00 1.74340239831974e-01 5.54792775400996e-02 
1.90104166666667e+00 1.72174608380852e-01 5.45992984242728e-02 
1.91840277777778e+00 1.70055582519435e-01 5.37481966476706e-02 
1.93576388888889e+00 1.67984626090939e-01 5.29256282709014e-02 
1.95312500000000e+00 1.65960871926225e-01 5.21275508954690e-02 
1.97048611111111e+00 1.63983902077394e-01 5.13474585100157e-02 
1.98784722222222e+00 1.62052753430689e-01 5.05788292134754e-02 
2.00520833333333e+00 1.60167435281377e-01 4.98168657167717e-02 
2.02256944444445e+00 1.58326938286578e-01 4.90588383865534e-02 
2.03993055555556e+00 1.56530472378921e-01 4.83041903193785e-02 
2.05729166666667e+00 1.54777121286916e-01 4.75553491348171e-02 
2.07465277777778e+00 1.53065457253377e-01 4.68158634353123e-02 
2.09201388888889e+00 1.51393823389810e-01 4.60887602079180e-02 
2.10937500000000e+00 1.49760710977976e-01 4.53757254805752e-02 
2.12673611111111e+00 1.48158175532679e-01 4.46791254207784e-02 
2.14409722222222e+00 1.46585369668074e-01 4.39977770363481e-02 
2.16145833333333e+00 1.45041641089784e-01 4.33300032798228e-02 
2.17881944444445e+00 1.43526175892231e-01 4.26742900490485e-02 
2.19618055555556e+00 1.42039518044452e-01 4.20301995536837e-02 
2.21354166666667e+00 1.40580407632948e-01 4.13983451709236e-02 
2.23090277777778e+00 1.39147309413568e-01 4.07806248064729e-02 
2.24826388888889e+00 1.37740465335164e-01 4.01791317475789e-02 
2.26562500000000e+00 1.36359333615116e-01 3.95969561335308e-02 
2.28298611111111e+00 1.35003305552617e-01 3.90386020901486e-02 
2.30034722222222e+00 1.33671462248792e-01 3.85061680876744e-02 
2.31770833333333e+00 1.32361977028997e-01 3.79991854293027e-02 
2.33506944444445e+00 1.31073672375380e-01 3.75157738162467e-02 
2.35243055555556e+00 1.29804701400080e-01 3.70539749633168e-02 
2.36979166666667e+00 1.28553895760507e-01 3.66136985399656e-02 
2.38715277777778e+00 1.27320162670225e-01 3.61935941162221e-02 
2.40451388888889e+00 1.26102539830222e-01 3.57906342676130e-02 
2.42187500000000e+00 1.24902183819224e-01 3.54032767760808e-02 
2.43923611111111e+00 1.23719351262194e-01 3.50304323218669e-02 
2.45659722222222e+00 1.22553623932993e-01 3.46728334777459e-02 
2.47395833333333e+00 1.21405547810256e-01 3.43333101843155e-02 
2.49131944444445e+00 1.20274271957133e-01 3.40135819318088e-02 
2.50868055555556e+00 1.19159539734673e-01 3.37126860815871e-02 
2.52604166666667e+00 1.18057066758929e-01 3.34272334745672e-02 
2.54340277777778e+00 1.16966162286000e-01 3.31538738804268e-02 
2.56076388888889e+00 1.15886293834896e-01 3.28930139489826e-02 
2.57812500000000e+00 1.14816687779686e-01 3.26425037842973e-02 
2.59548611111111e+00 1.13756110153695e-01 3.23984233359141e-02 
2.61284722222222e+00 1.12704721434491e-01 3.21582709664080e-02 
2.63020833333333e+00 1.11661886558862e-01 3.19190035280244e-02 
2.64756944444445e+00 1.10627835775838e-01 3.16791045573937e-02 
2.66493055555556e+00 1.09602953307536e-01 3.14392966540076e-02 
2.68229166666667e+00 1.08587113460518e-01 3.11999265335376e-02 
2.69965277777778e+00 1.07580746323770e-01 3.09633953905297e-02 
2.71701388888889e+00 1.06584201837423e-01 3.07323913069616e-02 
2.73437500000000e+00 1.05596888317986e-01 3.05081755673255e-02 
2.75173611111111e+00 1.04619042474027e-01 3.02923673173156e-02 
2.76909722222222e+00 1.03649971449215e-01 3.00845612040430e-02 
2.78645833333333e+00 1.02689054400025e-01 2.98826576039944e-02 
2.80381944444445e+00 1.01735987511180e-01 2.96853063343534e-02 
2.82118055555556e+00 1.00788457088278e-01 2.94903340039130e-02 
2.83854166666667e+00 9.98459332332072e-02 2.92955782680069e-02 
2.85590277777778e+00 9.89086768367227e-02 2.90997762370315e-02 
2.87326388888889e+00 9.79763293406502e-02 2.89016580325223e-02 
2.89062500000000e+00 9.70492867940806e-02 2.87016621608335e-02 
2.90798611111111e+00 9.61277698527811e-02 2.85010125474180e-02 
2.92534722222222e+00 9.52118059241562e-02 2.83006237462752e-02 
2.94270833333333e+00 9.43016507945112e-02 2.81020078728635e-02 
2.96006944444445e+00 9.33971990521544e-02 2.79060078059321e-02 
2.97743055555556e+00 9.24982342729503e-02 2.77127656204045e-02 
2.99479166666667e+00 9.16046536884185e-02 2.75221992186738e-02 
3.01215277777778e+00 9.07157185595099e-02 2.73337526221097e-02 
3.02951388888889e+00 8.98314000924315e-02 2.71470788436062e-02 
3.04687500000000e+00 8.89516184688632e-02 2.69614872670417e-02 
3.06423611111111e+00 8.80761164277804e-02 2.67755677187622e-02 
3.08159722222222e+00 8.72049214915347e-02 2.65877308521112e-02 
3.09895833333333e+00 8.63382153235986e-02 2.63953163884539e-02 
3.11631944444445e+00 8.54761945214305e-02 2.61970812569551e-02 
3.13368055555556e+00 8.46192332811382e-02 2.59956129095245e-02 
3.15104166666667e+00 8.37673988807193e-02 2.57936081049061e-02 
3.16840277777778e+00 8.29207083044597e-02 2.55914869025672e-02 
3.18576388888889e+00 8.20792464694956e-02 2.53890791205018e-02 
3.20312500000000e+00 8.12428025248445e-02 2.51865921109223e-02 
3.22048611111111e+00 8.04119604095352e-02 2.49846609584988e-02 
3.23784722222222e+00 7.95869809296546e-02 2.47828521232030e-02 
3.25520833333333e+00 7.87677808753757e-02 2.45785548175829e-02 
3.27256944444445e+00 7.79544763258156e-02 2.43695416519108e-02 
3.28993055555556e+00 7.71472267994115e-02 2.41552616654517e-02 
3.30729166666667e+00 7.63462045397816e-02 2.39358959748313e-02 
3.32465277777778e+00 7.55506004482909e-02 2.37116695793949e-02 
3.34201388888889e+00 7.47605659275791e-02 2.34817299117976e-02 
3.35937500000000e+00 7.39763133830934e-02 2.32453293843707e-02 
3.37673611111111e+00 7.31981484280956e-02 2.30025032610925e-02 
3.39409722222222e+00 7.24262928597297e-02 2.27534912435478e-02 
3.41145833333333e+00 7.16609595628279e-02 2.24993005716028e-02 
3.42881944444445e+00 7.09023179025695e-02 2.22415959783528e-02 
3.44618055555556e+00 7.01504364301424e-02 2.19810142653673e-02 
3.46354166666667e+00 6.94054479571003e-02 2.17174868471906e-02 
3.48090277777778e+00 6.86675015947646e-02 2.14510715951669e-02 
3.49826388888889e+00 6.79367164173614e-02 2.11818363780600e-02 
3.51562500000000e+00 6.72132398030906e-02 2.09099632476954e-02 
3.53298611111111e+00 6.64972226365927e-02 2.06355921512334e-02 
3.55034722222222e+00 6.57888026653571e-02 2.03584375576389e-02 
3.56770833333333e+00 6.50880472984467e-02 2.00795117708358e-02 
3.58506944444445e+00 6.43954069984694e-02 1.98023414104386e-02 
3.60243055555556e+00 6.37111552101089e-02 1.95309801294636e-02 
3.61979166666667e+00 6.30353774204360e-02 1.92673015210537e-02 
3.63715277777778e+00 6.23675949031264e-02 1.90100316238450e-02 
3.65451388888889e+00 6.17081501229284e-02 1.87565201917872e-02 
3.67187500000000e+00 6.10570888571463e-02 1.85058120936725e-02 
3.68923611111111e+00 6.04143181684179e-02 1.82578409900400e-02 
3.70659722222222e+00 5.97797509208374e-02 1.80128126331482e-02 
3.72395833333333e+00 5.91531598480806e-02 1.77713137521535e-02 
3.74131944444445e+00 5.85343295754220e-02 1.75332752335145e-02 
3.75868055555556e+00 5.79231656025958e-02 1.72976708671362e-02 
3.77604166666667e+00 5.73196283983437e-02 1.70636224736706e-02 
3.79340277777778e+00 5.67236808353242e-02 1.68309619390780e-02 
3.81076388888889e+00 5.61352452943589e-02 1.65999866540581e-02 
3.82812500000000e+00 5.55543092685848e-02 1.63710999768196e-02 
3.84548611111111e+00 5.49807983734613e-02 1.61444999787501e-02 
3.86284722222222e+00 5.44146411070284e-02 1.59201773727240e-02 
3.88020833333333e+00 5.38557858360086e-02 1.56980879768034e-02 
3.89756944444445e+00 5.33040794508866e-02 1.54783959320680e-02 
3.91493055555556e+00 5.27594739092769e-02 1.52617325095798e-02 
3.93229166666667e+00 5.22219757584084e-02 1.50486938128700e-02 
3.94965277777778e+00 5.16914662698383e-02 1.48394513692230e-02 
3.96701388888889e+00 5.11678230599792e-02 1.46342195178884e-02 
3.98437500000000e+00 5.06511846779558e-02 1.44331246873278e-02 
4.00173611111111e+00 5.01414970634260e-02 1.42362043344830e-02 
4.01909722222222e+00 4.96386790722755e-02 1.40435575086295e-02 
4.03645833333333e+00 4.91426186799743e-02 1.38552864280155e-02 
4.05381944444445e+00 4.86531569387735e-02 1.36714307346031e-02 
4.07118055555556e+00 4.81703428727742e-02 1.34919190680086e-02 
4.08854166666667e+00 4.76941060416156e-02 1.33167584563743e-02 
4.10590277777778e+00 4.72242810703995e-02 1.31459125923375e-02 
4.12326388888889e+00 4.67603626924211e-02 1.29792399424269e-02 
4.14062500000000e+00 4.63021551499807e-02 1.28163891930190e-02 
4.15798611111111e+00 4.58495360024489e-02 1.26570144533356e-02 
4.17534722222222e+00 4.54023907555255e-02 1.25009682928026e-02 
4.19270833333333e+00 4.49606006522308e-02 1.23482972753381e-02 
4.21006944444445e+00 4.45240724851088e-02 1.21991220506954e-02 
4.22743055555556e+00 4.40930205603754e-02 1.20535434412199e-02 
4.24479166666667e+00 4.36672980507219e-02 1.19116531572596e-02 
4.26215277777778e+00 4.32467477001219e-02 1.17734617376339e-02 
4.27951388888889e+00 4.28312314242171e-02 1.16390546626804e-02 
4.29687500000000e+00 4.24206075818681e-02 1.15084579775151e-02 
4.31423611111111e+00 4.20147401708764e-02 1.13815933644601e-02 
4.33159722222222e+00 4.16135012147912e-02 1.12583810632929e-02 
4.34895833333333e+00 4.12167604552540e-02 1.11387204219134e-02 
4.36631944444445e+00 4.08243898121229e-02 1.10224353155683e-02 
4.38368055555556e+00 4.04362686284253e-02 1.09093716899707e-02 
4.40104166666667e+00 4.00522794927539e-02 1.07993911731257e-02 
4.41840277777778e+00 3.96722908103277e-02 1.06922891539420e-02 
4.43576388888889e+00 3.92962419529151e-02 1.05878954846361e-02 
4.45312500000000e+00 3.89241345292490e-02 1.04861489228182e-02 
4.47048611111111e+00 3.85558683156592e-02 1.03870224196799e-02 
4.48784722222222e+00 3.81913455897993e-02 1.02904617354985e-02 
4.50520833333333e+00 3.78304707111667e-02 1.01961508722670e-02 
4.52256944444445e+00 3.74730410598859e-02 1.01034998682791e-02 
4.53993055555556e+00 3.71193365031542e-02 1.00121546592474e-02 
4.55729166666667e+00 3.67694314134870e-02 9.92223915019492e-03 
4.57465277777778e+00 3.64232608610610e-02 9.83383746687586e-03 
4.59201388888889e+00 3.60807608657492e-02 9.74692088534629e-03 
4.60937500000000e+00 3.57418678399686e-02 9.66137265629026e-03 
4.62673611111111e+00 3.54065017590605e-02 9.57699995508510e-03 
4.64409722222222e+00 3.50746365353419e-02 9.49363434597076e-03 
4.66145833333333e+00 3.47462297604232e-02 9.41115758027456e-03 
4.67881944444445e+00 3.44212419938295e-02 9.32950787930905e-03 
4.69618055555556e+00 3.40996346415554e-02 9.24866182313889e-03 
4.71354166666667e+00 3.37813664685998e-02 9.16855854977513e-03 
4.73090277777778e+00 3.34663935715086e-02 9.08916134786516e-03 
4.74826388888889e+00 3.31546821712423e-02 9.01077911227209e-03 
4.76562500000000e+00 3.28461769516264e-02 8.93404250945213e-03 
4.78298611111111e+00 3.25408007252084e-02 8.85933364365028e-03 
4.80034722222222e+00 3.22384726752046e-02 8.78668233203817e-03 
4.81770833333333e+00 3.19391220774226e-02 8.71606631665203e-03 
4.83506944444445e+00 3.16426805141547e-02 8.64752077067795e-03 
4.85243055555556e+00 3.13491019575182e-02 8.58108084372232e-03 
4.86979166666667e+00 3.10583053349319e-02 8.51673768087911e-03 
4.88715277777778e+00 3.07702110483927e-02 8.45445120922121e-03 
4.90451388888889e+00 3.04847415813949e-02 8.39393839401814e-03 
4.92187500000000e+00 3.02017643796046e-02 8.33463243070240e-03 
4.93923611111111e+00 2.99212196827579e-02 8.27614665715762e-03 
4.95659722222222e+00 2.96430842000089e-02 8.21840596207375e-03 
4.97395833333333e+00 2.93673269728616e-02 8.16140021513715e-03 
4.99131944444445e+00 2.90939172207988e-02 8.10511633136507e-03 
5.00868055555556e+00 2.88228244912522e-02 8.04957846618681e-03 
5.02604166666667e+00 2.85538204367652e-02 7.99490327710427e-03 
5.04340277777778e+00 2.82868676788459e-02 7.94133338385188e-03 
5.06076388888889e+00 2.80219052101026e-02 7.88916605599070e-03 
5.07812500000000e+00 2.77588478539470e-02 7.83838896770938e-03 
5.09548611111111e+00 2.74976301546032e-02 7.78877059098289e-03 
5.11284722222222e+00 2.72382246313791e-02 7.73997580836166e-03 
5.13020833333333e+00 2.69806388158491e-02 7.69163857436742e-03 
5.14756944444445e+00 2.67248596732707e-02 7.64362643737728e-03 
5.16493055555556e+00 2.64708865698489e-02 7.59595370732675e-03 
5.18229166666667e+00 2.62187496949160e-02 7.54861907217475e-03 
5.19965277777778e+00 2.59684344647331e-02 7.50161207804779e-03 
5.21701388888889e+00 2.57199017555492e-02 7.45490303602845e-03 
5.23437500000000e+00 2.54731122114861e-02 7.40846436872727e-03 
5.25173611111111e+00 2.52280546284456e-02 7.36228278329089e-03 
5.26909722222222e+00 2.49847180340117e-02 7.31635428440412e-03 
5.28645833333333e+00 2.47430949075645e-02 7.27067600296732e-03 
5.30381944444445e+00 2.45031760941816e-02 7.22524369282137e-03 
5.32118055555556e+00 2.42648942137264e-02 7.18005798568326e-03 
5.33854166666667e+00 2.40282175358430e-02 7.13511290250587e-03 
5.35590277777778e+00 2.37931367114934e-02 7.09040095379189e-03 
5.37326388888889e+00 2.35596426502685e-02 7.04591651481224e-03 
5.39062500000000e+00 2.33277263639454e-02 7.00165817156951e-03 
