Energy(eV)           EEDF(eV^-(3/2))      Anisotropy(eV^-(3/2))
1.04166666666667e-02 4.21417617993585e-01 4.75923554991482e-03 
3.12500000000000e-02 4.21174593099578e-01 6.35175779452971e-03 
5.20833333333333e-02 4.20282052333195e-01 1.67291702798573e-02 
7.29166666666667e-02 4.18847086650265e-01 2.61029618905738e-02 
9.37500000000000e-02 4.17164815377827e-01 3.23662982143938e-02 
1.14583333333333e-01 4.15411634968650e-01 3.61637364101955e-02 
1.35416666666667e-01 4.13662933231809e-01 3.87834940294835e-02 
1.56250000000000e-01 4.11872156872664e-01 4.09768765411171e-02 
1.77083333333333e-01 4.10128994243696e-01 4.23510200168654e-02 
1.97916666666667e-01 4.08447874171515e-01 4.31062007576486e-02 
2.18750000000000e-01 4.06810363101677e-01 4.37088589347181e-02 
2.39583333333333e-01 4.05196572289891e-01 4.41682940764384e-02 
2.60416666666667e-01 4.03612218772351e-01 4.51711361337692e-02 
2.81250000000000e-01 4.02034626303431e-01 4.67107892367386e-02 
3.02083333333333e-01 4.00477471602761e-01 4.74507411769811e-02 
3.22916666666667e-01 3.98956122789271e-01 4.69166700005026e-02 
3.43750000000000e-01 3.97466205341839e-01 4.55320327643675e-02 
3.64583333333333e-01 3.96075195950297e-01 4.42983472977783e-02 
3.85416666666667e-01 3.94713507277310e-01 4.40369575454082e-02 
4.06250000000000e-01 3.93352010256730e-01 4.40405543491601e-02 
4.27083333333333e-01 3.92000540639946e-01 4.36656870018025e-02 
4.47916666666667e-01 3.90669545994194e-01 4.27328543781069e-02 
4.68750000000000e-01 3.89327489581414e-01 4.14156625719073e-02 
4.89583333333333e-01 3.88085452420945e-01 4.12326300968285e-02 
5.10416666666667e-01 3.86812205002014e-01 4.24227080171892e-02 
5.31250000000000e-01 3.85503477788554e-01 4.32493104164111e-02 
5.52083333333333e-01 3.84187949467407e-01 4.33386974820480e-02 
5.72916666666667e-01 3.82845778281278e-01 4.27353240643484e-02 
5.93750000000000e-01 3.81528309775457e-01 4.21153287612342e-02 
6.14583333333333e-01 3.80268779897432e-01 4.25065034585775e-02 
6.35416666666667e-01 3.78998487288541e-01 4.34772366937979e-02 
6.56250000000000e-01 3.77719629734334e-01 4.43620575207042e-02 
6.77083333333333e-01 3.76436670464793e-01 4.45309134913119e-02 
6.97916666666667e-01 3.75075678553834e-01 4.40106652361418e-02 
7.18750000000000e-01 3.73843789808993e-01 4.43896639452819e-02 
7.39583333333333e-01 3.72587055841155e-01 4.59303700657484e-02 
7.60416666666667e-01 3.71285767774696e-01 4.75379836174703e-02 
7.81250000000000e-01 3.69943752648992e-01 4.90400712093760e-02 
8.02083333333333e-01 3.68543005207846e-01 5.02270013029463e-02 
8.22916666666667e-01 3.67070476088118e-01 5.13401481449433e-02 
8.43750000000000e-01 3.65572639683690e-01 5.30756465778764e-02 
8.64583333333333e-01 3.63977127382802e-01 5.52709565967833e-02 
8.85416666666667e-01 3.62276010512955e-01 5.75562206794123e-02 
9.06250000000000e-01 3.60465730606491e-01 5.95907757921015e-02 
9.27083333333333e-01 3.58514930287791e-01 6.13935074849098e-02 
9.47916666666667e-01 3.56563602039531e-01 6.37384341026344e-02 
9.68750000000000e-01 3.54515123156200e-01 6.65532331773664e-02 
9.89583333333333e-01 3.52363825006338e-01 6.94554070192114e-02 
1.01041666666667e+00 3.50107461728284e-01 7.23863069676226e-02 
1.03125000000000e+00 3.47716409637068e-01 7.52398870821471e-02 
1.05208333333333e+00 3.45176401095499e-01 7.80500334310110e-02 
1.07291666666667e+00 3.42536668305918e-01 8.10621766239230e-02 
1.09375000000000e+00 3.39754399067014e-01 8.41810914402957e-02 
1.11458333333333e+00 3.36827100775495e-01 8.72930339060660e-02 
1.13541666666667e+00 3.33753770576572e-01 9.03230279226052e-02 
1.15625000000000e+00 3.30504191714568e-01 9.32495035923388e-02 
1.17708333333333e+00 3.27140129875872e-01 9.62825326495463e-02 
1.19791666666667e+00 3.23618905364228e-01 9.93555015611126e-02 
1.21875000000000e+00 3.19932489049369e-01 1.02354604429797e-01 
1.23958333333333e+00 3.16070994219230e-01 1.05220102532444e-01 
1.26041666666667e+00 3.12022107155971e-01 1.07904781932035e-01 
1.28125000000000e+00 3.07811020637193e-01 1.10421327660925e-01 
1.30208333333333e+00 3.03426538109403e-01 1.12709116553929e-01 
1.32291666666667e+00 2.98867361966814e-01 1.14696116724438e-01 
1.34375000000000e+00 2.94137203864695e-01 1.16322115800355e-01 
1.36458333333333e+00 2.89236794936220e-01 1.17554884868512e-01 
1.38541666666667e+00 2.84192876949842e-01 1.18407240185906e-01 
1.40625000000000e+00 2.79005887271622e-01 1.18862795634950e-01 
1.42708333333333e+00 2.73690071180355e-01 1.18908657073185e-01 
1.44791666666667e+00 2.68258114075234e-01 1.18554246796954e-01 
1.46875000000000e+00 2.62725214477315e-01 1.17834833834724e-01 
1.48958333333333e+00 2.57111763951303e-01 1.16808074132887e-01 
1.51041666666667e+00 2.51431594756585e-01 1.15528744698827e-01 
1.53125000000000e+00 2.45741834205165e-01 1.14046781288223e-01 
1.55208333333333e+00 2.40057505978137e-01 1.12421334289341e-01 
1.57291666666667e+00 2.34393369968520e-01 1.10700128030664e-01 
1.59375000000000e+00 2.28765427896053e-01 1.08925231952199e-01 
1.61458333333333e+00 2.23191021120255e-01 1.07118580527367e-01 
1.63541666666667e+00 2.17698458790292e-01 1.05281244003640e-01 
1.65625000000000e+00 2.12296021678701e-01 1.03416488668253e-01 
1.67708333333333e+00 2.06986659417694e-01 1.01514413827840e-01 
1.69791666666667e+00 2.01773598188329e-01 9.95591839169702e-02 
1.71875000000000e+00 1.96672416225996e-01 9.75319880542766e-02 
1.73958333333333e+00 1.91701254231926e-01 9.54095335475112e-02 
1.76041666666667e+00 1.86863186450035e-01 9.31830523290472e-02 
1.78125000000000e+00 1.82158144326483e-01 9.08511619794066e-02 
1.80208333333333e+00 1.77588090889732e-01 8.84220613691372e-02 
1.82291666666667e+00 1.73155814997553e-01 8.59261890304847e-02 
1.84375000000000e+00 1.68863754310956e-01 8.34047674142819e-02 
1.86458333333333e+00 1.64714623324328e-01 8.09043071135998e-02 
1.88541666666667e+00 1.60708525633233e-01 7.84719915990563e-02 
1.90625000000000e+00 1.56845124984058e-01 7.61421891506733e-02 
1.92708333333333e+00 1.53142983125683e-01 7.39283406697265e-02 
1.94791666666667e+00 1.49606441299818e-01 7.18328191959296e-02 
1.96875000000000e+00 1.46227857517309e-01 6.98370065175549e-02 
1.98958333333333e+00 1.43002919329953e-01 6.79190327609466e-02 
2.01041666666667e+00 1.39928249150932e-01 6.60570335514782e-02 
2.03125000000000e+00 1.36994859697774e-01 6.42351839188701e-02 
2.05208333333333e+00 1.34201908911666e-01 6.24449013857866e-02 
2.07291666666667e+00 1.31536527332263e-01 6.06859333779107e-02 
2.09375000000000e+00 1.28994390739916e-01 5.89643471441382e-02 
2.11458333333333e+00 1.26562989377963e-01 5.72868615126322e-02 
2.13541666666667e+00 1.24216658064317e-01 5.56594208013221e-02 
2.15625000000000e+00 1.21954385605473e-01 5.40778950096236e-02 
2.17708333333333e+00 1.19770502318244e-01 5.25412959658237e-02 
2.19791666666667e+00 1.17667346399490e-01 5.10502626694245e-02 
2.21875000000000e+00 1.15640801672654e-01 4.96094255372583e-02 
2.23958333333333e+00 1.13687866631205e-01 4.82201520373522e-02 
2.26041666666667e+00 1.11808814388430e-01 4.68862304811807e-02 
2.28125000000000e+00 1.10000544911591e-01 4.56147828239127e-02 
2.30208333333333e+00 1.08261430603531e-01 4.44089449306457e-02 
2.32291666666667e+00 1.06584079357997e-01 4.32653665031402e-02 
2.34375000000000e+00 1.04963909081929e-01 4.21753435378666e-02 
2.36458333333333e+00 1.03394168016784e-01 4.11353845236948e-02 
2.38541666666667e+00 1.01872036086543e-01 4.01400488429376e-02 
2.40625000000000e+00 1.00393789781745e-01 3.91852481561770e-02 
2.42708333333333e+00 9.89601568524032e-02 3.82669249078919e-02 
2.44791666666667e+00 9.75705264488570e-02 3.73842649242104e-02 
2.46875000000000e+00 9.62253751371325e-02 3.65408201035781e-02 
2.48958333333333e+00 9.49250505858269e-02 3.57429621492114e-02 
2.51041666666667e+00 9.36680213526415e-02 3.49916950603455e-02 
2.53125000000000e+00 9.24462335501192e-02 3.42838794198426e-02 
2.55208333333333e+00 9.12563109533021e-02 3.36145815773546e-02 
2.57291666666667e+00 9.00962896033409e-02 3.29804472657907e-02 
2.59375000000000e+00 8.89620593291476e-02 3.23753923995936e-02 
2.61458333333333e+00 8.78522600467511e-02 3.17902212853013e-02 
2.63541666666667e+00 8.67644986614610e-02 3.12184453811745e-02 
2.65625000000000e+00 8.56994256704650e-02 3.06574494401823e-02 
2.67708333333333e+00 8.46569207166544e-02 3.01089815029628e-02 
2.69791666666667e+00 8.36375004594386e-02 2.95779050226368e-02 
2.71875000000000e+00 8.26421763233346e-02 2.90686802206435e-02 
2.73958333333333e+00 8.16690297020161e-02 2.85849743199052e-02 
2.76041666666667e+00 8.07187217809743e-02 2.81282703778714e-02 
2.78125000000000e+00 7.97879182049717e-02 2.76971462344025e-02 
2.80208333333333e+00 7.88759559958751e-02 2.72863304296750e-02 
2.82291666666667e+00 7.79784948320963e-02 2.68904221143147e-02 
2.84375000000000e+00 7.70940021747549e-02 2.65040792822702e-02 
2.86458333333333e+00 7.62224704614027e-02 2.61246111313817e-02 
2.88541666666667e+00 7.53631668769132e-02 2.57518864377218e-02 
2.90625000000000e+00 7.45170687481969e-02 2.53876551597359e-02 
2.92708333333333e+00 7.36837069284550e-02 2.50346650476554e-02 
2.94791666666667e+00 7.28635506270128e-02 2.46952861360576e-02 
2.96875000000000e+00 7.20557568189551e-02 2.43710652612604e-02 
2.98958333333333e+00 7.12598175304061e-02 2.40615429532915e-02 
3.01041666666667e+00 7.04742458712482e-02 2.37645937645238e-02 
3.03125000000000e+00 6.96981468934909e-02 2.34772292022170e-02 
3.05208333333333e+00 6.89311035724923e-02 2.31967632699589e-02 
3.07291666666667e+00 6.81723971797961e-02 2.29210304761102e-02 
3.09375000000000e+00 6.74221907968547e-02 2.26479941223696e-02 
3.11458333333333e+00 6.66803901692390e-02 2.23758573195146e-02 
3.13541666666667e+00 6.59474511792548e-02 2.21061823711263e-02 
3.15625000000000e+00 6.52232678798604e-02 2.18426684397424e-02 
3.17708333333333e+00 6.45077192015392e-02 2.15865543154336e-02 
3.19791666666667e+00 6.38004493133821e-02 2.13374810677051e-02 
3.21875000000000e+00 6.31010292694423e-02 2.10949406106894e-02 
3.23958333333333e+00 6.24095571980493e-02 2.08567947556917e-02 
3.26041666666667e+00 6.17255601889746e-02 2.06194777980058e-02 
3.28125000000000e+00 6.10491183666046e-02 2.03808429188269e-02 
3.30208333333333e+00 6.03801419717630e-02 2.01405226254841e-02 
3.32291666666667e+00 5.97184198950760e-02 1.98985463885863e-02 
3.34375000000000e+00 5.90639036461665e-02 1.96548023378330e-02 
3.36458333333333e+00 5.84166547095766e-02 1.94090523491362e-02 
3.38541666666667e+00 5.77768547448733e-02 1.91611462080350e-02 
3.40625000000000e+00 5.71444478150779e-02 1.89113900847245e-02 
3.42708333333333e+00 5.65194769883038e-02 1.86607788179571e-02 
3.44791666666667e+00 5.59018172667330e-02 1.84097326075464e-02 
3.46875000000000e+00 5.52914315747296e-02 1.81578915364168e-02 
3.48958333333333e+00 5.46883774490864e-02 1.79050505847214e-02 
3.51041666666667e+00 5.40926709959177e-02 1.76512646327254e-02 
3.53125000000000e+00 5.35044366750011e-02 1.73966879907452e-02 
3.55208333333333e+00 5.29237427304973e-02 1.71413023613577e-02 
3.57291666666667e+00 5.23506133486888e-02 1.68865692443115e-02 
3.59375000000000e+00 5.17854369488772e-02 1.66363529585716e-02 
3.61458333333333e+00 5.12283992359327e-02 1.63942156487587e-02 
3.63541666666667e+00 5.06792757787381e-02 1.61600784232332e-02 
3.65625000000000e+00 5.01379637854111e-02 1.59311606473298e-02 
3.67708333333333e+00 4.96046015725971e-02 1.57057948611325e-02 
3.69791666666667e+00 4.90790387359492e-02 1.54839453745664e-02 
3.71875000000000e+00 4.85611580612965e-02 1.52659833151032e-02 
3.73958333333333e+00 4.80507264814214e-02 1.50519531465459e-02 
3.76041666666667e+00 4.75475963809420e-02 1.48409114229411e-02 
3.78125000000000e+00 4.70517002783059e-02 1.46320917094936e-02 
3.80208333333333e+00 4.65629276885927e-02 1.44254788771680e-02 
3.82291666666667e+00 4.60811434811689e-02 1.42213311555100e-02 
3.84375000000000e+00 4.56062456349379e-02 1.40197573445231e-02 
3.86458333333333e+00 4.51381235308086e-02 1.38206622461997e-02 
3.88541666666667e+00 4.46767049544986e-02 1.36239169562048e-02 
3.90625000000000e+00 4.42217763414030e-02 1.34298920235028e-02 
3.92708333333333e+00 4.37733977099246e-02 1.32394495218591e-02 
3.94791666666667e+00 4.33314689855376e-02 1.30532854190300e-02 
3.96875000000000e+00 4.28958345836023e-02 1.28715551578477e-02 
3.98958333333333e+00 4.24666451574746e-02 1.26941041951923e-02 
4.01041666666667e+00 4.20438104088761e-02 1.25209572571771e-02 
4.03125000000000e+00 4.16269711839751e-02 1.23523534690962e-02 
4.05208333333333e+00 4.12159483956491e-02 1.21883164889433e-02 
4.07291666666667e+00 4.08107641410006e-02 1.20286889680383e-02 
4.09375000000000e+00 4.04113890217210e-02 1.18734224594820e-02 
4.11458333333333e+00 4.00176031401115e-02 1.17224711649862e-02 
4.13541666666667e+00 3.96290410282176e-02 1.15756035264175e-02 
4.15625000000000e+00 3.92455752845576e-02 1.14324473607074e-02 
4.17708333333333e+00 3.88670786669164e-02 1.12927998929798e-02 
4.19791666666667e+00 3.84934218647272e-02 1.11566829001134e-02 
4.21875000000000e+00 3.81245688561965e-02 1.10242162057051e-02 
4.23958333333333e+00 3.77605270678669e-02 1.08954723068549e-02 
4.26041666666667e+00 3.74011280763889e-02 1.07705487491881e-02 
4.28125000000000e+00 3.70462276982317e-02 1.06495507395800e-02 
4.30208333333333e+00 3.66956818339747e-02 1.05324806817216e-02 
4.32291666666667e+00 3.63493566551238e-02 1.04192494129389e-02 
4.34375000000000e+00 3.60071210919098e-02 1.03097068261799e-02 
4.36458333333333e+00 3.56688485269707e-02 1.02036146089480e-02 
4.38541666666667e+00 3.53344182394641e-02 1.01008067982360e-02 
4.40625000000000e+00 3.50037119923283e-02 1.00011459607805e-02 
4.42708333333333e+00 3.46765886629426e-02 9.90445340617153e-03 
4.44791666666667e+00 3.43530779318223e-02 9.81057443688108e-03 
4.46875000000000e+00 3.40331112065647e-02 9.71944710285282e-03 
4.48958333333333e+00 3.37165879354640e-02 9.63101487944012e-03 
4.51041666666667e+00 3.34034102225788e-02 9.54486986960699e-03 
4.53125000000000e+00 3.30934121815077e-02 9.46034189336291e-03 
4.55208333333333e+00 3.27870354558558e-02 9.37710535052428e-03 
4.57291666666667e+00 3.24842167625473e-02 9.29532983364386e-03 
4.59375000000000e+00 3.21848903470838e-02 9.21502515548311e-03 
4.61458333333333e+00 3.18889871079318e-02 9.13605095966168e-03 
4.63541666666667e+00 3.15964359522985e-02 9.05819415416591e-03 
4.65625000000000e+00 3.13072061306763e-02 8.98130109754511e-03 
4.67708333333333e+00 3.10212524396596e-02 8.90531915692554e-03 
4.69791666666667e+00 3.07385311120646e-02 8.83021635823203e-03 
4.71875000000000e+00 3.04589941483287e-02 8.75595288526484e-03 
4.73958333333333e+00 3.01825926681840e-02 8.68284236366830e-03 
4.76041666666667e+00 2.99092653767736e-02 8.61161791717490e-03 
4.78125000000000e+00 2.96389262803340e-02 8.54271996606449e-03 
4.80208333333333e+00 2.93714869685158e-02 8.47616805610481e-03 
4.82291666666667e+00 2.91068703378928e-02 8.41196455495890e-03 
4.84375000000000e+00 2.88450126603999e-02 8.35015725838169e-03 
4.86458333333333e+00 2.85858516820108e-02 8.29074534943487e-03 
4.88541666666667e+00 2.83293009120160e-02 8.23368239265577e-03 
4.90625000000000e+00 2.80752763979015e-02 8.17864375628257e-03 
4.92708333333333e+00 2.78236215471739e-02 8.12499966281525e-03 
4.94791666666667e+00 2.75742744264914e-02 8.07233211367663e-03 
4.96875000000000e+00 2.73272054557095e-02 8.02055846025600e-03 
4.98958333333333e+00 2.70823783646226e-02 7.96966072055142e-03 
5.01041666666667e+00 2.68397572766643e-02 7.91963735710111e-03 
5.03125000000000e+00 2.65991295857292e-02 7.87057783495020e-03 
5.05208333333333e+00 2.63604535512092e-02 7.82276340840084e-03 
5.07291666666667e+00 2.61236470274802e-02 7.77648918471443e-03 
5.09375000000000e+00 2.58886096341160e-02 7.73163749221614e-03 
5.11458333333333e+00 2.56552949305823e-02 7.68778560987927e-03 
5.13541666666667e+00 2.54236598057614e-02 7.64451454963425e-03 
5.15625000000000e+00 2.51936876504091e-02 7.60164831144488e-03 
5.17708333333333e+00 2.49654091511894e-02 7.55918289376252e-03 
5.19791666666667e+00 2.47388284093895e-02 7.51709716324373e-03 
5.21875000000000e+00 2.45139127060550e-02 7.47534517134714e-03 
5.23958333333333e+00 2.42906232630468e-02 7.43388727357356e-03 
5.26041666666667e+00 2.40689470842450e-02 7.39270699298979e-03 
5.28125000000000e+00 2.38488726013349e-02 7.35179947618906e-03 
5.30208333333333e+00 2.36303919815967e-02 7.31115907749702e-03 
5.32291666666667e+00 2.34134612352591e-02 7.27078276635382e-03 
5.34375000000000e+00 2.31980475388996e-02 7.23066437360015e-03 
5.36458333333333e+00 2.29841395095095e-02 7.19079781573982e-03 
5.38541666666667e+00 2.27717259467282e-02 7.15117996564823e-03 
5.40625000000000e+00 2.25607962642597e-02 7.11179571202471e-03 
5.42708333333333e+00 2.23513409784719e-02 7.07262290574980e-03 
5.44791666666667e+00 2.21433499739490e-02 7.03368847658079e-03 
5.46875000000000e+00 2.19368115931313e-02 6.99505594736750e-03 
5.48958333333333e+00 2.17317124097790e-02 6.95675152350031e-03 
5.51041666666667e+00 2.15280393211230e-02 6.91873206908282e-03 
5.53125000000000e+00 2.13258560229393e-02 6.88090404056874e-03 
5.55208333333333e+00 2.11251547779919e-02 6.84322845254383e-03 
5.57291666666667e+00 2.09259267333264e-02 6.80571225071128e-03 
5.59375000000000e+00 2.07281627388587e-02 6.76836256934309e-03 
5.61458333333333e+00 2.05318486728740e-02 6.73118764022621e-03 
5.63541666666667e+00 2.03369556276209e-02 6.69421765245592e-03 
5.65625000000000e+00 2.01434732285072e-02 6.65748490089150e-03 
5.67708333333333e+00 1.99513903217558e-02 6.62100003329676e-03 
5.69791666666667e+00 1.97606958664203e-02 6.58476029253205e-03 
5.71875000000000e+00 1.95713884690188e-02 6.54873841729060e-03 
5.73958333333333e+00 1.93834728788393e-02 6.51288290085979e-03 
5.76041666666667e+00 1.91969408718484e-02 6.47717920730088e-03 
5.78125000000000e+00 1.90117838082050e-02 6.44164593771884e-03 
5.80208333333333e+00 1.88279925610885e-02 6.40627920821070e-03 
5.82291666666667e+00 1.86455452346909e-02 6.37107462385288e-03 
5.84375000000000e+00 1.84644243921268e-02 6.33607093053744e-03 
5.86458333333333e+00 1.82846198434485e-02 6.30130921523547e-03 
5.88541666666667e+00 1.81061206008868e-02 6.26679596591269e-03 
5.90625000000000e+00 1.79288987906119e-02 6.23253962049015e-03 
5.92708333333333e+00 1.77528166396328e-02 6.19857403992207e-03 
5.94791666666667e+00 1.75778323874165e-02 6.16490367602382e-03 
5.96875000000000e+00 1.74039360785987e-02 6.13152505715255e-03 
5.98958333333333e+00 1.72311178896900e-02 6.09843498561964e-03 
6.01041666666667e+00 1.70593681091435e-02 6.06553344496868e-03 
6.03125000000000e+00 1.68884345767131e-02 6.03265630021485e-03 
6.05208333333333e+00 1.67182604539406e-02 5.99969163887178e-03 
6.07291666666667e+00 1.65488475473247e-02 5.96662914524220e-03 
6.09375000000000e+00 1.63802003207069e-02 5.93347454196412e-03 
6.11458333333333e+00 1.62123433475827e-02 5.90025512036425e-03 
6.13541666666667e+00 1.60453606151486e-02 5.86699960811115e-03 
6.15625000000000e+00 1.58792537318872e-02 5.83372475888834e-03 
6.17708333333333e+00 1.57140245807984e-02 5.80042967791387e-03 
6.19791666666667e+00 1.55496743456995e-02 5.76710844215506e-03 
6.21875000000000e+00 1.53862050509637e-02 5.73373294389781e-03 
6.23958333333333e+00 1.52236200706926e-02 5.70028239993534e-03 
6.26041666666667e+00 1.50619222876631e-02 5.66676716338363e-03 
6.28125000000000e+00 1.49011139657700e-02 5.63320150944306e-03 
6.30208333333333e+00 1.47411970938364e-02 5.59959620725299e-03 
6.32291666666667e+00 1.45821731694004e-02 5.56595176371280e-03 
6.34375000000000e+00 1.44240441598618e-02 5.53224694388383e-03 
6.36458333333333e+00 1.42668129119536e-02 5.49846831190897e-03 
6.38541666666667e+00 1.41104822515620e-02 5.46462005943148e-03 
6.40625000000000e+00 1.39550548069388e-02 5.43066497312344e-03 
6.42708333333333e+00 1.38005373160655e-02 5.39652631444322e-03 
6.44791666666667e+00 1.36469372181322e-02 5.36217555757614e-03 
6.46875000000000e+00 1.34942611110271e-02 5.32762493318426e-03 
