Energy(eV)           EEDF(eV^-(3/2))      Anisotropy(eV^-(3/2))
1.04166666666667e-02 1.73559598299263e-01 -1.29398978175087e-03 
3.12500000000000e-02 1.73578096641913e-01 -4.42622498279303e-04 
5.20833333333333e-02 1.73593324972810e-01 1.33117564077062e-04 
7.29166666666667e-02 1.73605380943066e-01 5.02406397760193e-04 
9.37500000000000e-02 1.73613870136061e-01 8.10444273003992e-04 
1.14583333333333e-01 1.73618598362250e-01 1.09153278282867e-03 
1.35416666666667e-01 1.73619399458265e-01 1.69688638448868e-03 
1.56250000000000e-01 1.73607994746386e-01 2.54306013759976e-03 
1.77083333333333e-01 1.73584420928836e-01 3.03437230386680e-03 
1.97916666666667e-01 1.73555190739200e-01 3.31334791478690e-03 
2.18750000000000e-01 1.73518376327108e-01 3.61501170897813e-03 
2.39583333333333e-01 1.73474924732563e-01 3.85041096847646e-03 
2.60416666666667e-01 1.73425500445456e-01 4.63444005452787e-03 
2.81250000000000e-01 1.73350588270871e-01 5.93308671280034e-03 
3.02083333333333e-01 1.73249689444595e-01 6.91353725385412e-03 
3.22916666666667e-01 1.73131700592221e-01 7.51107523773986e-03 
3.43750000000000e-01 1.72992072887812e-01 7.71125891657029e-03 
3.64583333333333e-01 1.72857888690492e-01 8.08484370376104e-03 
3.85416666666667e-01 1.72703756619221e-01 9.24171210744274e-03 
4.06250000000000e-01 1.72513916679784e-01 1.05135324079588e-02 
4.27083333333333e-01 1.72298068128343e-01 1.13239674429772e-02 
4.47916666666667e-01 1.72065243751948e-01 1.15135811289534e-02 
4.68750000000000e-01 1.71802489841570e-01 1.12134333384661e-02 
4.89583333333333e-01 1.71574286569563e-01 1.18091409874835e-02 
5.10416666666667e-01 1.71304775585960e-01 1.34916616609815e-02 
5.31250000000000e-01 1.70993811621456e-01 1.47276222034907e-02 
5.52083333333333e-01 1.70663456381755e-01 1.51865242506910e-02 
5.72916666666667e-01 1.70301741753880e-01 1.48809398481762e-02 
5.93750000000000e-01 1.69948548323866e-01 1.44394054337679e-02 
6.14583333333333e-01 1.69629632279260e-01 1.47767556947387e-02 
6.35416666666667e-01 1.69300633299125e-01 1.55272808137634e-02 
6.56250000000000e-01 1.68965860320955e-01 1.60875969299635e-02 
6.77083333333333e-01 1.68631045995707e-01 1.58494308656854e-02 
6.97916666666667e-01 1.68245294425149e-01 1.49732118419622e-02 
7.18750000000000e-01 1.67958284992675e-01 1.46619423109543e-02 
7.39583333333333e-01 1.67668469168378e-01 1.53322013163113e-02 
7.60416666666667e-01 1.67365322318932e-01 1.59375661746442e-02 
7.81250000000000e-01 1.67053998568051e-01 1.63128471236095e-02 
8.02083333333333e-01 1.66725173973686e-01 1.62530284108696e-02 
8.22916666666667e-01 1.66374179882636e-01 1.60185015452861e-02 
8.43750000000000e-01 1.66033530856684e-01 1.61940694946138e-02 
8.64583333333333e-01 1.65659573645773e-01 1.66638650832725e-02 
8.85416666666667e-01 1.65250531920834e-01 1.70800797428775e-02 
9.06250000000000e-01 1.64808295437237e-01 1.71129444645606e-02 
9.27083333333333e-01 1.64324217780571e-01 1.68602766357723e-02 
9.47916666666667e-01 1.63880727603969e-01 1.69179248554022e-02 
9.68750000000000e-01 1.63420817103772e-01 1.73110072092645e-02 
9.89583333333333e-01 1.62943615335207e-01 1.76723596700459e-02 
1.01041666666667e+00 1.62451235150007e-01 1.79508954639492e-02 
1.03125000000000e+00 1.61944041943950e-01 1.80853967975747e-02 
1.05208333333333e+00 1.61418957085845e-01 1.81455883256878e-02 
1.07291666666667e+00 1.60900923809156e-01 1.83361766593018e-02 
1.09375000000000e+00 1.60369189694943e-01 1.86106888424191e-02 
1.11458333333333e+00 1.59824494886879e-01 1.88610520278315e-02 
1.13541666666667e+00 1.59267228929604e-01 1.90140500976758e-02 
1.15625000000000e+00 1.58688847042662e-01 1.90835961395011e-02 
1.17708333333333e+00 1.58116505918705e-01 1.92463078857599e-02 
1.19791666666667e+00 1.57531088988415e-01 1.94848776539751e-02 
1.21875000000000e+00 1.56935065880920e-01 1.97106119595580e-02 
1.23958333333333e+00 1.56331728684727e-01 1.99033333911171e-02 
1.26041666666667e+00 1.55718260837417e-01 2.00660318761632e-02 
1.28125000000000e+00 1.55103926677006e-01 2.02552828262391e-02 
1.30208333333333e+00 1.54482504284834e-01 2.04646482535394e-02 
1.32291666666667e+00 1.53855761076132e-01 2.06682621726503e-02 
1.34375000000000e+00 1.53224801178522e-01 2.08539117044695e-02 
1.36458333333333e+00 1.52587658370655e-01 2.10220919113120e-02 
1.38541666666667e+00 1.51950474657574e-01 2.12073484342472e-02 
1.40625000000000e+00 1.51309223559505e-01 2.14071781022110e-02 
1.42708333333333e+00 1.50664059973381e-01 2.16028460177808e-02 
1.44791666666667e+00 1.50015187157814e-01 2.17880542670162e-02 
1.46875000000000e+00 1.49362126671388e-01 2.19622661606868e-02 
1.48958333333333e+00 1.48707088553357e-01 2.21359019590634e-02 
1.51041666666667e+00 1.48048982015596e-01 2.23093466081820e-02 
1.53125000000000e+00 1.47387963735703e-01 2.24781450048052e-02 
1.55208333333333e+00 1.46724087501668e-01 2.26410360933731e-02 
1.57291666666667e+00 1.46057560457041e-01 2.27990676214390e-02 
1.59375000000000e+00 1.45388947627858e-01 2.29552532882167e-02 
1.61458333333333e+00 1.44718024696656e-01 2.31090326162406e-02 
1.63541666666667e+00 1.44044941401719e-01 2.32579991407561e-02 
1.65625000000000e+00 1.43369651979650e-01 2.34019165596463e-02 
1.67708333333333e+00 1.42692737207727e-01 2.35431570409075e-02 
1.69791666666667e+00 1.42014125474921e-01 2.36821856449301e-02 
1.71875000000000e+00 1.41334157706348e-01 2.38178339815579e-02 
1.73958333333333e+00 1.40653384331301e-01 2.39498410802516e-02 
1.76041666666667e+00 1.39971946467697e-01 2.40782400027095e-02 
1.78125000000000e+00 1.39289980662449e-01 2.42031218125053e-02 
1.80208333333333e+00 1.38607619718253e-01 2.43244862165642e-02 
1.82291666666667e+00 1.37924999677823e-01 2.44421568674706e-02 
1.84375000000000e+00 1.37242261543998e-01 2.45559368507370e-02 
1.86458333333333e+00 1.36559546794468e-01 2.46658047099416e-02 
1.88541666666667e+00 1.35876993663258e-01 2.47718639216787e-02 
1.90625000000000e+00 1.35194735340396e-01 2.48742682580101e-02 
1.92708333333333e+00 1.34512330974199e-01 2.49730854854433e-02 
1.94791666666667e+00 1.33829757818658e-01 2.50683819979151e-02 
1.96875000000000e+00 1.33147132547117e-01 2.51601106125586e-02 
1.98958333333333e+00 1.32464548198389e-01 2.52481332728931e-02 
2.01041666666667e+00 1.31782124231955e-01 2.53324473599615e-02 
2.03125000000000e+00 1.31099981182406e-01 2.54131329398396e-02 
2.05208333333333e+00 1.30418234223003e-01 2.54902001463703e-02 
2.07291666666667e+00 1.29736997939061e-01 2.55636778210143e-02 
2.09375000000000e+00 1.29056383736311e-01 2.56336464004897e-02 
2.11458333333333e+00 1.28376329969351e-01 2.57001228007941e-02 
2.13541666666667e+00 1.27696263085784e-01 2.57629998722492e-02 
2.15625000000000e+00 1.27016289314977e-01 2.58222723752195e-02 
2.17708333333333e+00 1.26336512707230e-01 2.58779944855309e-02 
2.19791666666667e+00 1.25657035149000e-01 2.59301770537941e-02 
2.21875000000000e+00 1.24977835488437e-01 2.59787116803058e-02 
2.23958333333333e+00 1.24298834628143e-01 2.60234504600726e-02 
2.26041666666667e+00 1.23620141136641e-01 2.60643503320549e-02 
2.28125000000000e+00 1.22941861088577e-01 2.61014471949832e-02 
2.30208333333333e+00 1.22264098484330e-01 2.61348110416318e-02 
2.32291666666667e+00 1.21587036990486e-01 2.61645177533203e-02 
2.34375000000000e+00 1.20910830757352e-01 2.61906112224905e-02 
2.36458333333333e+00 1.20235577544488e-01 2.62131277997498e-02 
2.38541666666667e+00 1.19561373207394e-01 2.62321377186286e-02 
2.40625000000000e+00 1.18888310496018e-01 2.62476820149369e-02 
2.42708333333333e+00 1.18218060349504e-01 2.62598413656806e-02 
2.44791666666667e+00 1.17551107327617e-01 2.62686998926616e-02 
2.46875000000000e+00 1.16887538438556e-01 2.62743176973357e-02 
2.48958333333333e+00 1.16227437819948e-01 2.62767619069349e-02 
2.51041666666667e+00 1.15570886394373e-01 2.62761696148021e-02 
2.53125000000000e+00 1.14915650306465e-01 2.62725727899985e-02 
2.55208333333333e+00 1.14261806929532e-01 2.62659176103681e-02 
2.57291666666667e+00 1.13609432731670e-01 2.62562501470238e-02 
2.59375000000000e+00 1.12958601843857e-01 2.62436527530404e-02 
2.61458333333333e+00 1.12309471567648e-01 2.62282037732262e-02 
2.63541666666667e+00 1.11662454441876e-01 2.62099788463727e-02 
2.65625000000000e+00 1.11017616513013e-01 2.61890475492157e-02 
2.67708333333333e+00 1.10375022222134e-01 2.61654613463588e-02 
2.69791666666667e+00 1.09734733985947e-01 2.61392913132632e-02 
2.71875000000000e+00 1.09096812724677e-01 2.61106359057103e-02 
2.73958333333333e+00 1.08461316541252e-01 2.60796073142807e-02 
2.76041666666667e+00 1.07828298776405e-01 2.60462933305377e-02 
2.78125000000000e+00 1.07197810691229e-01 2.60107439905857e-02 
2.80208333333333e+00 1.06569902290027e-01 2.59729976356567e-02 
2.82291666666667e+00 1.05944067282203e-01 2.59331101214207e-02 
2.84375000000000e+00 1.05319987009858e-01 2.58910905837408e-02 
2.86458333333333e+00 1.04697713289058e-01 2.58469051883653e-02 
2.88541666666667e+00 1.04077296770821e-01 2.58005412697996e-02 
2.90625000000000e+00 1.03458787682172e-01 2.57520493317473e-02 
2.92708333333333e+00 1.02842279128859e-01 2.57015156453427e-02 
2.94791666666667e+00 1.02227827792354e-01 2.56489909165634e-02 
2.96875000000000e+00 1.01615478463409e-01 2.55944986685307e-02 
2.98958333333333e+00 1.01005274962514e-01 2.55380837674381e-02 
3.01041666666667e+00 1.00397259512257e-01 2.54798288259230e-02 
3.03125000000000e+00 9.97913423424758e-02 2.54198253353822e-02 
3.05208333333333e+00 9.91875571338216e-02 2.53581683197644e-02 
3.07291666666667e+00 9.85859382815879e-02 2.52949979825509e-02 
3.09375000000000e+00 9.79865171520864e-02 2.52304044538583e-02 
3.11458333333333e+00 9.73893153862865e-02 2.51644346113875e-02 
3.13541666666667e+00 9.67943271477296e-02 2.50971382968032e-02 
3.15625000000000e+00 9.62015804679713e-02 2.50285476898715e-02 
3.17708333333333e+00 9.56111026312708e-02 2.49586995960242e-02 
3.19791666666667e+00 9.50229196891922e-02 2.48876527151794e-02 
3.21875000000000e+00 9.44374840146914e-02 2.48154634709782e-02 
3.23958333333333e+00 9.38554569118823e-02 2.47421756941621e-02 
3.26041666666667e+00 9.32768569909660e-02 2.46677992035639e-02 
3.28125000000000e+00 9.27017009540116e-02 2.45922758103267e-02 
3.30208333333333e+00 9.21300061855004e-02 2.45156082042482e-02 
3.32291666666667e+00 9.15607475895681e-02 2.44379118205386e-02 
3.34375000000000e+00 9.09932544343049e-02 2.43592107497732e-02 
3.36458333333333e+00 9.04275513477150e-02 2.42794945915566e-02 
3.38541666666667e+00 8.98636622327749e-02 2.41987905781962e-02 
3.40625000000000e+00 8.93016104560649e-02 2.41171253004543e-02 
3.42708333333333e+00 8.87414845743376e-02 2.40345417259003e-02 
3.44791666666667e+00 8.81833194582396e-02 2.39511221404359e-02 
3.46875000000000e+00 8.76271325549430e-02 2.38669583075404e-02 
3.48958333333333e+00 8.70729401795677e-02 2.37821090647751e-02 
3.51041666666667e+00 8.65207579792828e-02 2.36966056380260e-02 
3.53125000000000e+00 8.59705608577285e-02 2.36104754033412e-02 
3.55208333333333e+00 8.54223635866667e-02 2.35237235165219e-02 
3.57291666666667e+00 8.48761809022915e-02 2.34363642510422e-02 
3.59375000000000e+00 8.43320268932599e-02 2.33484309628157e-02 
3.61458333333333e+00 8.37898984641955e-02 2.32599681236483e-02 
3.63541666666667e+00 8.32497433463635e-02 2.31710585129150e-02 
3.65625000000000e+00 8.27115743424646e-02 2.30817776430202e-02 
3.67708333333333e+00 8.21754002962665e-02 2.29921329298907e-02 
3.69791666666667e+00 8.16412309124035e-02 2.29021122217064e-02 
3.71875000000000e+00 8.11089201087172e-02 2.28117423024726e-02 
3.73958333333333e+00 8.05782457967948e-02 2.27210333020806e-02 
3.76041666666667e+00 8.00492202900883e-02 2.26299535868850e-02 
3.78125000000000e+00 7.95218563046206e-02 2.25385039147076e-02 
3.80208333333333e+00 7.89961661647133e-02 2.24467382560878e-02 
3.82291666666667e+00 7.84721161878430e-02 2.23548435302254e-02 
3.84375000000000e+00 7.79496798319283e-02 2.22630800434979e-02 
3.86458333333333e+00 7.74288540711035e-02 2.21716037955104e-02 
3.88541666666667e+00 7.69096356645315e-02 2.20804619858614e-02 
3.90625000000000e+00 7.63920207654704e-02 2.19896663683854e-02 
3.92708333333333e+00 7.58760982354188e-02 2.18992465864102e-02 
3.94791666666667e+00 7.53618847203431e-02 2.18092968321082e-02 
3.96875000000000e+00 7.48493711758233e-02 2.17198884446013e-02 
3.98958333333333e+00 7.43385476186399e-02 2.16310357994518e-02 
4.01041666666667e+00 7.38294042647588e-02 2.15425929159700e-02 
4.03125000000000e+00 7.33222715844915e-02 2.14543510118640e-02 
4.05208333333333e+00 7.28171481480890e-02 2.13663873170051e-02 
4.07291666666667e+00 7.23140260692896e-02 2.12787814958810e-02 
4.09375000000000e+00 7.18128976195507e-02 2.11915288374593e-02 
4.11458333333333e+00 7.13135960495945e-02 2.11046633045458e-02 
4.13541666666667e+00 7.08154813550200e-02 2.10181895194619e-02 
4.15625000000000e+00 7.03185536592039e-02 2.09319340248884e-02 
4.17708333333333e+00 6.98228163654000e-02 2.08458125698003e-02 
4.19791666666667e+00 6.93282669003797e-02 2.07597761233082e-02 
4.21875000000000e+00 6.88352011635516e-02 2.06737786400469e-02 
4.23958333333333e+00 6.83440725899493e-02 2.05878413881634e-02 
4.26041666666667e+00 6.78548782948243e-02 2.05020255831455e-02 
4.28125000000000e+00 6.73676162605365e-02 2.04163391789997e-02 
4.30208333333333e+00 6.68822841510157e-02 2.03307730269322e-02 
4.32291666666667e+00 6.63989044937786e-02 2.02453370902606e-02 
4.34375000000000e+00 6.59174901647376e-02 2.01601315163360e-02 
4.36458333333333e+00 6.54380344510032e-02 2.00752578436363e-02 
4.38541666666667e+00 6.49605292566506e-02 1.99907439180114e-02 
4.40625000000000e+00 6.44849665191874e-02 1.99064983086966e-02 
4.42708333333333e+00 6.40112634967253e-02 1.98223668881164e-02 
4.44791666666667e+00 6.35394003439172e-02 1.97382947542528e-02 
4.46875000000000e+00 6.30693763747318e-02 1.96543026496494e-02 
4.48958333333333e+00 6.26011910306274e-02 1.95703958753131e-02 
4.51041666666667e+00 6.21348435937461e-02 1.94866195683329e-02 
4.53125000000000e+00 6.16702554216149e-02 1.94031153915296e-02 
4.55208333333333e+00 6.12074201264880e-02 1.93200193504878e-02 
4.57291666666667e+00 6.07463287180371e-02 1.92373831971945e-02 
4.59375000000000e+00 6.02869720552281e-02 1.91552006092446e-02 
4.61458333333333e+00 5.98293419602398e-02 1.90734073306576e-02 
4.63541666666667e+00 5.93734348217827e-02 1.89918083153094e-02 
4.65625000000000e+00 5.89192532187687e-02 1.89101610654347e-02 
4.67708333333333e+00 5.84668027838451e-02 1.88283526988831e-02 
4.69791666666667e+00 5.80160896340012e-02 1.87463457378970e-02 
4.71875000000000e+00 5.75670963185765e-02 1.86640318295765e-02 
4.73958333333333e+00 5.71197974055346e-02 1.85812642831835e-02 
4.76041666666667e+00 5.66742082662667e-02 1.84979670879935e-02 
4.78125000000000e+00 5.62303445068194e-02 1.84141423705955e-02 
4.80208333333333e+00 5.57882212724097e-02 1.83297997936764e-02 
4.82291666666667e+00 5.53478947990547e-02 1.82449441422811e-02 
4.84375000000000e+00 5.49094063949550e-02 1.81596167655232e-02 
4.86458333333333e+00 5.44727683685700e-02 1.80738747738982e-02 
4.88541666666667e+00 5.40379922559076e-02 1.79877497786340e-02 
4.90625000000000e+00 5.36050892041632e-02 1.79012431939742e-02 
4.92708333333333e+00 5.31741254990533e-02 1.78143611393170e-02 
4.94791666666667e+00 5.27451248517556e-02 1.77271500933257e-02 
4.96875000000000e+00 5.23180960438501e-02 1.76396377762759e-02 
4.98958333333333e+00 5.18930477484936e-02 1.75518347370191e-02 
5.01041666666667e+00 5.14699882411626e-02 1.74638161032737e-02 
5.03125000000000e+00 5.10483966321249e-02 1.73757516725092e-02 
5.05208333333333e+00 5.06282807864879e-02 1.72876153653213e-02 
5.07291666666667e+00 5.02096496654059e-02 1.71993900927699e-02 
5.09375000000000e+00 4.97925119941678e-02 1.71110851020832e-02 
5.11458333333333e+00 4.93769473150934e-02 1.70227182446740e-02 
5.13541666666667e+00 4.89632449773230e-02 1.69343212681295e-02 
5.15625000000000e+00 4.85514072364078e-02 1.68459795798759e-02 
5.17708333333333e+00 4.81414351948860e-02 1.67577204219431e-02 
5.19791666666667e+00 4.77333297549084e-02 1.66695418898868e-02 
5.21875000000000e+00 4.73270426859314e-02 1.65814835453413e-02 
5.23958333333333e+00 4.69224999759118e-02 1.64936354793554e-02 
5.26041666666667e+00 4.65196997689673e-02 1.64060362949768e-02 
5.28125000000000e+00 4.61186402384685e-02 1.63186849812657e-02 
5.30208333333333e+00 4.57193195492739e-02 1.62315720205434e-02 
5.32291666666667e+00 4.53215906187395e-02 1.61446987432408e-02 
5.34375000000000e+00 4.49253572112851e-02 1.60580544322878e-02 
5.36458333333333e+00 4.45306207433969e-02 1.59716258006005e-02 
5.38541666666667e+00 4.41373827163204e-02 1.58854137702352e-02 
5.40625000000000e+00 4.37456444443996e-02 1.57993756097518e-02 
5.42708333333333e+00 4.33554122549748e-02 1.57134408153926e-02 
5.44791666666667e+00 4.29666922611914e-02 1.56276062187517e-02 
5.46875000000000e+00 4.25794884378636e-02 1.55418924045376e-02 
5.48958333333333e+00 4.21938044827905e-02 1.54562995871802e-02 
5.51041666666667e+00 4.18096440459026e-02 1.53708057754731e-02 
5.53125000000000e+00 4.14273593804587e-02 1.52852910096935e-02 
5.55208333333333e+00 4.10469544168509e-02 1.51997139147257e-02 
5.57291666666667e+00 4.06684340855154e-02 1.51140617227402e-02 
5.59375000000000e+00 4.02918029641427e-02 1.50283472788189e-02 
5.61458333333333e+00 3.99170428047495e-02 1.49426111215389e-02 
5.63541666666667e+00 3.95440669392905e-02 1.48569827668292e-02 
5.65625000000000e+00 3.91728750978957e-02 1.47715980048729e-02 
5.67708333333333e+00 3.88034638284900e-02 1.46865114949600e-02 
5.69791666666667e+00 3.84358297356513e-02 1.46017251722878e-02 
5.71875000000000e+00 3.80700130820398e-02 1.45171428844874e-02 
5.73958333333333e+00 3.77060799982964e-02 1.44325303770603e-02 
5.76041666666667e+00 3.73440374914905e-02 1.43477221280573e-02 
5.78125000000000e+00 3.69838942658872e-02 1.42626897645559e-02 
5.80208333333333e+00 3.66256586607719e-02 1.41773990261358e-02 
5.82291666666667e+00 3.62692800111581e-02 1.40918545612769e-02 
5.84375000000000e+00 3.59147277983517e-02 1.40061775662956e-02 
5.86458333333333e+00 3.55620082043288e-02 1.39204496477032e-02 
5.88541666666667e+00 3.52111265461070e-02 1.38346739524008e-02 
5.90625000000000e+00 3.48620880862618e-02 1.37488928867033e-02 
5.92708333333333e+00 3.45143154264250e-02 1.36632877906917e-02 
5.94791666666667e+00 3.41676711826792e-02 1.35778936152928e-02 
5.96875000000000e+00 3.38221630006293e-02 1.34927177892451e-02 
5.98958333333333e+00 3.34777980420611e-02 1.34077716364825e-02 
6.01041666666667e+00 3.31345832194357e-02 1.33228863342547e-02 
6.03125000000000e+00 3.27925442978067e-02 1.32377304859565e-02 
6.05208333333333e+00 3.24517043544292e-02 1.31521699424228e-02 
6.07291666666667e+00 3.21120861792529e-02 1.30662459245889e-02 
6.09375000000000e+00 3.17737117430978e-02 1.29800046886605e-02 
6.11458333333333e+00 3.14366938952315e-02 1.28935552907122e-02 
6.13541666666667e+00 3.11014136229587e-02 1.28069929379830e-02 
6.15625000000000e+00 3.07678788323414e-02 1.27203860371915e-02 
6.17708333333333e+00 3.04360980396333e-02 1.26337273520618e-02 
6.19791666666667e+00 3.01060794051185e-02 1.25469910194093e-02 
6.21875000000000e+00 2.97778353662285e-02 1.24600662076431e-02 
6.23958333333333e+00 2.94513836588075e-02 1.23728702837351e-02 
6.26041666666667e+00 2.91267384088859e-02 1.22854397280730e-02 
6.28125000000000e+00 2.88039117175704e-02 1.21978256619922e-02 
6.30208333333333e+00 2.84829151542965e-02 1.21100668205684e-02 
6.32291666666667e+00 2.81637581247048e-02 1.20221626793195e-02 
6.34375000000000e+00 2.78464518992911e-02 1.19340283938064e-02 
6.36458333333333e+00 2.75310112138536e-02 1.18456089971022e-02 
6.38541666666667e+00 2.72174507137830e-02 1.17569170599543e-02 
6.40625000000000e+00 2.69057844583948e-02 1.16678040858990e-02 
6.42708333333333e+00 2.65960462983297e-02 1.15779674083230e-02 
6.44791666666667e+00 2.62882693633299e-02 1.14872933048131e-02 
6.46875000000000e+00 2.59824825482123e-02 1.13958264558512e-02 
