Energy(eV)           EEDF(eV^-(3/2))      Anisotropy(eV^-(3/2))
1.04166666666667e-02 6.87755378370737e-01 7.51028588025201e-03 
3.12500000000000e-02 6.87361260789391e-01 9.94120336825626e-03 
5.20833333333333e-02 6.85960000830531e-01 2.62370865749665e-02 
7.29166666666667e-02 6.83727220651399e-01 4.09438313952721e-02 
9.37500000000000e-02 6.81096464486183e-01 5.07194146324774e-02 
1.14583333333333e-01 6.78318665648724e-01 5.66231607511401e-02 
1.35416666666667e-01 6.75519746290926e-01 6.03806642231679e-02 
1.56250000000000e-01 6.72655247035305e-01 6.32024711683573e-02 
1.77083333333333e-01 6.69856429377844e-01 6.50690103885557e-02 
1.97916666666667e-01 6.67129344383277e-01 6.62114213386336e-02 
2.18750000000000e-01 6.64450861210997e-01 6.71014134595029e-02 
2.39583333333333e-01 6.61787599507884e-01 6.78488156178709e-02 
2.60416666666667e-01 6.59144411344677e-01 6.89509463488696e-02 
2.81250000000000e-01 6.56528340433507e-01 7.03380944054587e-02 
3.02083333333333e-01 6.53953364148787e-01 7.07121716292238e-02 
3.22916666666667e-01 6.51437174316515e-01 6.94745232700414e-02 
3.43750000000000e-01 6.48994589934477e-01 6.72639407944427e-02 
3.64583333333333e-01 6.46670982719216e-01 6.51593130698787e-02 
3.85416666666667e-01 6.44407559573399e-01 6.38234521612610e-02 
4.06250000000000e-01 6.42176934842140e-01 6.27924970605742e-02 
4.27083333333333e-01 6.39980874121372e-01 6.16259232210275e-02 
4.47916666666667e-01 6.37822766695658e-01 6.02033334753590e-02 
4.68750000000000e-01 6.35682961637330e-01 5.86422376526796e-02 
4.89583333333333e-01 6.33625291615173e-01 5.80475871899109e-02 
5.10416666666667e-01 6.31547249914112e-01 5.85675953372678e-02 
5.31250000000000e-01 6.29448534889014e-01 5.89743897428514e-02 
5.52083333333333e-01 6.27346898341450e-01 5.90093222054433e-02 
5.72916666666667e-01 6.25228482998864e-01 5.87128949917920e-02 
5.93750000000000e-01 6.23123789088226e-01 5.85659542881163e-02 
6.14583333333333e-01 6.21041291653278e-01 5.93050754252963e-02 
6.35416666666667e-01 6.18925353662008e-01 6.06122212006413e-02 
6.56250000000000e-01 6.16771808114067e-01 6.20251384545720e-02 
6.77083333333333e-01 6.14578124448771e-01 6.31194104638634e-02 
6.97916666666667e-01 6.12300920929586e-01 6.38784234908977e-02 
7.18750000000000e-01 6.10061347336660e-01 6.55100693962248e-02 
7.39583333333333e-01 6.07739440255091e-01 6.81388796880864e-02 
7.60416666666667e-01 6.05313464016099e-01 7.10198698479433e-02 
7.81250000000000e-01 6.02778520548387e-01 7.40521553698530e-02 
8.02083333333333e-01 6.00114419926996e-01 7.71008370316302e-02 
8.22916666666667e-01 5.97306409336762e-01 8.03355744525261e-02 
8.43750000000000e-01 5.94373731365921e-01 8.42672701752765e-02 
8.64583333333333e-01 5.91252450439641e-01 8.87812660688080e-02 
8.85416666666667e-01 5.87925189288034e-01 9.36224428513583e-02 
9.06250000000000e-01 5.84378004119385e-01 9.85558990434868e-02 
9.27083333333333e-01 5.80577567515027e-01 1.03574512552590e-01 
9.47916666666667e-01 5.76613280710457e-01 1.09248046476453e-01 
9.68750000000000e-01 5.72400895036387e-01 1.15489250724027e-01 
9.89583333333333e-01 5.67925225447506e-01 1.22016607916800e-01 
1.01041666666667e+00 5.63174170497959e-01 1.28779410041528e-01 
1.03125000000000e+00 5.58060818361970e-01 1.35608510468390e-01 
1.05208333333333e+00 5.52564019074028e-01 1.42491095234004e-01 
1.07291666666667e+00 5.46709250748436e-01 1.49564795722408e-01 
1.09375000000000e+00 5.40450690402613e-01 1.56709914158316e-01 
1.11458333333333e+00 5.33778818300966e-01 1.63809638503066e-01 
1.13541666666667e+00 5.26692309920877e-01 1.70786928901962e-01 
1.15625000000000e+00 5.19160021005233e-01 1.77589564557920e-01 
1.17708333333333e+00 5.11226932182688e-01 1.84321680521289e-01 
1.19791666666667e+00 5.02853184918758e-01 1.90882135879360e-01 
1.21875000000000e+00 4.93998534099974e-01 1.97122335888225e-01 
1.23958333333333e+00 4.84605687881037e-01 2.02908733149762e-01 
1.26041666666667e+00 4.74662523708123e-01 2.08114332898950e-01 
1.28125000000000e+00 4.64197008661794e-01 2.12631129164813e-01 
1.30208333333333e+00 4.53214646889799e-01 2.16320886024766e-01 
1.32291666666667e+00 4.41705901941513e-01 2.19038103285220e-01 
1.34375000000000e+00 4.29685404915135e-01 2.20658944701912e-01 
1.36458333333333e+00 4.17186812719792e-01 2.21119696093239e-01 
1.38541666666667e+00 4.04272235239430e-01 2.20412051875848e-01 
1.40625000000000e+00 3.90984188800281e-01 2.18543646049129e-01 
1.42708333333333e+00 3.77389315372809e-01 2.15558776141676e-01 
1.44791666666667e+00 3.63547800858845e-01 2.11543438332812e-01 
1.46875000000000e+00 3.49535504946412e-01 2.06630092582583e-01 
1.48958333333333e+00 3.35424879057547e-01 2.00988054173960e-01 
1.51041666666667e+00 3.21286973847975e-01 1.94806462462174e-01 
1.53125000000000e+00 3.07329938784141e-01 1.88238806898432e-01 
1.55208333333333e+00 2.93608763765488e-01 1.81476503768415e-01 
1.57291666666667e+00 2.80172649245510e-01 1.74665915730168e-01 
1.59375000000000e+00 2.67066911614234e-01 1.67935525788450e-01 
1.61458333333333e+00 2.54339728223923e-01 1.61365650767627e-01 
1.63541666666667e+00 2.42065246496343e-01 1.54975364762187e-01 
1.65625000000000e+00 2.30252097188044e-01 1.48783173054571e-01 
1.67708333333333e+00 2.18888643612616e-01 1.42770162350017e-01 
1.69791666666667e+00 2.07966977148581e-01 1.36905496308504e-01 
1.71875000000000e+00 1.97513186897526e-01 1.31145750288703e-01 
1.73958333333333e+00 1.87556653148378e-01 1.25437942035665e-01 
1.76041666666667e+00 1.78087210176623e-01 1.19763193246835e-01 
1.78125000000000e+00 1.69086839318292e-01 1.14116809870752e-01 
1.80208333333333e+00 1.60543739310952e-01 1.08510815469094e-01 
1.82291666666667e+00 1.52449009270448e-01 1.02991918190325e-01 
1.84375000000000e+00 1.44793242455335e-01 9.76215986302184e-02 
1.86458333333333e+00 1.37568052613756e-01 9.24643921710107e-02 
1.88541666666667e+00 1.30759350188406e-01 8.75823733418162e-02 
1.90625000000000e+00 1.24352310232615e-01 8.30200018101168e-02 
1.92708333333333e+00 1.18375116304151e-01 7.87800814895718e-02 
1.94791666666667e+00 1.12821511216690e-01 7.48570651191469e-02 
1.96875000000000e+00 1.07659413874547e-01 7.12182400348975e-02 
1.98958333333333e+00 1.02864975578313e-01 6.78239077679966e-02 
2.01041666666667e+00 9.84171788379583e-02 6.46339194368361e-02 
2.03125000000000e+00 9.42854157902882e-02 6.16186110105257e-02 
2.05208333333333e+00 9.04561982120309e-02 5.87509073396528e-02 
2.07291666666667e+00 8.68946138976203e-02 5.60189128808133e-02 
2.09375000000000e+00 8.35839525299923e-02 5.34132228993020e-02 
2.11458333333333e+00 8.04943086507002e-02 5.09283212233042e-02 
2.13541666666667e+00 7.75752440293507e-02 4.85671439466034e-02 
2.15625000000000e+00 7.48207991160759e-02 4.63143941209755e-02 
2.17708333333333e+00 7.22172492084818e-02 4.41667699371421e-02 
2.19791666666667e+00 6.97649147725499e-02 4.21206735038947e-02 
2.21875000000000e+00 6.74544103444041e-02 4.01807167297841e-02 
2.23958333333333e+00 6.52779534015807e-02 3.83472058283861e-02 
2.26041666666667e+00 6.32323225861931e-02 3.66203969091832e-02 
2.28125000000000e+00 6.13093006704745e-02 3.50038342507808e-02 
2.30208333333333e+00 5.95031843817060e-02 3.34943754339787e-02 
2.32291666666667e+00 5.77997111695276e-02 3.20839542010249e-02 
2.34375000000000e+00 5.61896475599817e-02 3.07566112340151e-02 
2.36458333333333e+00 5.46611454490368e-02 2.95034957817846e-02 
2.38541666666667e+00 5.32086741768642e-02 2.83142647706270e-02 
2.40625000000000e+00 5.18256524888109e-02 2.71829501368968e-02 
2.42708333333333e+00 5.05106711267267e-02 2.61039513043181e-02 
2.44791666666667e+00 4.92614671005332e-02 2.50759327425945e-02 
2.46875000000000e+00 4.80775207801418e-02 2.41016308237201e-02 
2.48958333333333e+00 4.69580450318447e-02 2.31861568131570e-02 
2.51041666666667e+00 4.58998128770167e-02 2.23301705974108e-02 
2.53125000000000e+00 4.48928929056286e-02 2.15320658891310e-02 
2.55208333333333e+00 4.39317021524634e-02 2.07862185561196e-02 
2.57291666666667e+00 4.30128062898563e-02 2.00866850257601e-02 
2.59375000000000e+00 4.21302849667068e-02 1.94263802267271e-02 
2.61458333333333e+00 4.12817666061201e-02 1.87950893558431e-02 
2.63541666666667e+00 4.04635937775008e-02 1.81865758565703e-02 
2.65625000000000e+00 3.96759579879416e-02 1.75976346697495e-02 
2.67708333333333e+00 3.89181558372659e-02 1.70296583328900e-02 
2.69791666666667e+00 3.81902213788292e-02 1.64867197376576e-02 
2.71875000000000e+00 3.74927008444010e-02 1.59720557762941e-02 
2.73958333333333e+00 3.68228489397906e-02 1.54887590136550e-02 
2.76041666666667e+00 3.61808522766151e-02 1.50368059551895e-02 
2.78125000000000e+00 3.55625516969796e-02 1.46147968492590e-02 
2.80208333333333e+00 3.49667761415503e-02 1.42170115991345e-02 
2.82291666666667e+00 3.43894119632826e-02 1.38383286176325e-02 
2.84375000000000e+00 3.38286982050046e-02 1.34738314826400e-02 
2.86458333333333e+00 3.32843005799220e-02 1.31210921599951e-02 
2.88541666666667e+00 3.27552347085894e-02 1.27800566209792e-02 
2.90625000000000e+00 3.22421652650938e-02 1.24518254961506e-02 
2.92708333333333e+00 3.17442716858921e-02 1.21386921981050e-02 
2.94791666666667e+00 3.12616971650376e-02 1.18421978967529e-02 
2.96875000000000e+00 3.07932928849543e-02 1.15633257611806e-02 
2.98958333333333e+00 3.03382680539772e-02 1.13012236293417e-02 
3.01041666666667e+00 2.98951563299651e-02 1.10535714721657e-02 
3.03125000000000e+00 2.94628765054448e-02 1.08172584667799e-02 
3.05208333333333e+00 2.90408438899031e-02 1.05897793155245e-02 
3.07291666666667e+00 2.86282748238936e-02 1.03694843717101e-02 
3.09375000000000e+00 2.82251574233313e-02 1.01552634798797e-02 
3.11458333333333e+00 2.78311818774962e-02 9.94671054640172e-03 
3.13541666666667e+00 2.74465139792373e-02 9.74489876098588e-03 
3.15625000000000e+00 2.70708363997872e-02 9.55175373075020e-03 
3.17708333333333e+00 2.67038479834271e-02 9.36789282047067e-03 
3.19791666666667e+00 2.63450509783820e-02 9.19291196644915e-03 
3.21875000000000e+00 2.59937996731708e-02 9.02590611689926e-03 
3.23958333333333e+00 2.56497769301300e-02 8.86513836969342e-03 
3.26041666666667e+00 2.53124218389198e-02 8.70848338899577e-03 
3.28125000000000e+00 2.49816539279687e-02 8.55462933114682e-03 
3.30208333333333e+00 2.46572322815931e-02 8.40324013325538e-03 
3.32291666666667e+00 2.43390910580582e-02 8.25435323972053e-03 
3.34375000000000e+00 2.40271842010810e-02 8.10817419253830e-03 
3.36458333333333e+00 2.37213800306829e-02 7.96480169832399e-03 
3.38541666666667e+00 2.34216258797308e-02 7.82419776660876e-03 
3.40625000000000e+00 2.31276721647238e-02 7.68627159945435e-03 
3.42708333333333e+00 2.28393540945695e-02 7.55100396773085e-03 
3.44791666666667e+00 2.25564220605095e-02 7.41811171099099e-03 
3.46875000000000e+00 2.22787167939422e-02 7.28708942082449e-03 
3.48958333333333e+00 2.20061632527144e-02 7.15765724189766e-03 
3.51041666666667e+00 2.17386610137781e-02 7.02975969890976e-03 
3.53125000000000e+00 2.14762053430358e-02 6.90349368665463e-03 
3.55208333333333e+00 2.12187319036199e-02 6.77892904718305e-03 
3.57291666666667e+00 2.09661641117946e-02 6.65663720560268e-03 
3.59375000000000e+00 2.07185399604661e-02 6.53801113818840e-03 
3.61458333333333e+00 2.04758006575481e-02 6.42422416391655e-03 
3.63541666666667e+00 2.02377548113761e-02 6.31501816167737e-03 
3.65625000000000e+00 2.00042485067783e-02 6.20913208386780e-03 
3.67708333333333e+00 1.97752569821556e-02 6.10578157289506e-03 
3.69791666666667e+00 1.95506485489968e-02 6.00486863605209e-03 
3.71875000000000e+00 1.93303301547611e-02 5.90650548595481e-03 
3.73958333333333e+00 1.91141723761415e-02 5.81071824403792e-03 
3.76041666666667e+00 1.89020550979951e-02 5.71716330706139e-03 
3.78125000000000e+00 1.86938994270808e-02 5.62553451210485e-03 
3.80208333333333e+00 1.84895917391017e-02 5.53576233030627e-03 
3.82291666666667e+00 1.82890308115749e-02 5.44783431250104e-03 
3.84375000000000e+00 1.80921199709800e-02 5.36166496696960e-03 
3.86458333333333e+00 1.78987651660631e-02 5.27711579792210e-03 
3.88541666666667e+00 1.77088985520945e-02 5.19407780377287e-03 
3.90625000000000e+00 1.75223980912795e-02 5.11265140433248e-03 
3.92708333333333e+00 1.73392395129131e-02 5.03314736612106e-03 
3.94791666666667e+00 1.71593434229906e-02 4.95581528115687e-03 
3.96875000000000e+00 1.69826140743489e-02 4.88069274369343e-03 
3.98958333333333e+00 1.68090667700942e-02 4.80769189743553e-03 
4.01041666666667e+00 1.66386263779160e-02 4.73677421276570e-03 
4.03125000000000e+00 1.64709576729289e-02 4.66802305989738e-03 
4.05208333333333e+00 1.63059626204862e-02 4.60137014444142e-03 
4.07291666666667e+00 1.61436229303446e-02 4.53671786927039e-03 
4.09375000000000e+00 1.59839033961337e-02 4.47403029849497e-03 
4.11458333333333e+00 1.58267100685001e-02 4.41327498521950e-03 
4.13541666666667e+00 1.56719243486930e-02 4.35435308024463e-03 
4.15625000000000e+00 1.55194778490773e-02 4.29712745473482e-03 
4.17708333333333e+00 1.53693032894219e-02 4.24151079486454e-03 
4.19791666666667e+00 1.52213329892700e-02 4.18749382371314e-03 
4.21875000000000e+00 1.50755188572995e-02 4.13510419060215e-03 
4.23958333333333e+00 1.49318212890531e-02 4.08434761349585e-03 
4.26041666666667e+00 1.47901620715562e-02 4.03523653126311e-03 
4.28125000000000e+00 1.46504733896755e-02 3.98779774814602e-03 
4.30208333333333e+00 1.45126877409952e-02 3.94202287936869e-03 
4.32291666666667e+00 1.43767403190203e-02 3.89786878568442e-03 
4.34375000000000e+00 1.42425687280251e-02 3.85526627764260e-03 
4.36458333333333e+00 1.41101141140846e-02 3.81411248158131e-03 
4.38541666666667e+00 1.39793206027933e-02 3.77433366736319e-03 
4.40625000000000e+00 1.38501335708172e-02 3.73587367662108e-03 
4.42708333333333e+00 1.37224967192270e-02 3.69866461473963e-03 
4.44791666666667e+00 1.35964097253677e-02 3.66264348591266e-03 
4.46875000000000e+00 1.34718370865787e-02 3.62777778737424e-03 
4.48958333333333e+00 1.33487327718573e-02 3.59404020223208e-03 
4.51041666666667e+00 1.32270522217757e-02 3.56127027206814e-03 
4.53125000000000e+00 1.31067300474818e-02 3.52920261125017e-03 
4.55208333333333e+00 1.29879139969071e-02 3.49770546678224e-03 
4.57291666666667e+00 1.28705745419254e-02 3.46683359277738e-03 
4.59375000000000e+00 1.27546814895155e-02 3.43658543306404e-03 
4.61458333333333e+00 1.26402037360386e-02 3.40690735255528e-03 
4.63541666666667e+00 1.25271098871507e-02 3.37772552228119e-03 
4.65625000000000e+00 1.24153825469796e-02 3.34899019623936e-03 
4.67708333333333e+00 1.23049994222048e-02 3.32068286434913e-03 
4.69791666666667e+00 1.21959390314669e-02 3.29278989676434e-03 
4.71875000000000e+00 1.20881801044268e-02 3.26529811134707e-03 
4.73958333333333e+00 1.19817017424991e-02 3.23832883955784e-03 
4.76041666666667e+00 1.18764756127023e-02 3.21215825527084e-03 
4.78125000000000e+00 1.17724640442317e-02 3.18694875239650e-03 
4.80208333333333e+00 1.16696285024979e-02 3.16270429845268e-03 
4.82291666666667e+00 1.15679323225003e-02 3.13942345923234e-03 
4.84375000000000e+00 1.14673446126038e-02 3.11711985951315e-03 
4.86458333333333e+00 1.13678368548548e-02 3.09578766629323e-03 
4.88541666666667e+00 1.12693723675231e-02 3.07540570078749e-03 
4.90625000000000e+00 1.11719157099943e-02 3.05585093582591e-03 
4.92708333333333e+00 1.10754032158504e-02 3.03688483422692e-03 
4.94791666666667e+00 1.09798079734002e-02 3.01834649442496e-03 
4.96875000000000e+00 1.08851156414891e-02 3.00020220005569e-03 
4.98958333333333e+00 1.07913097128862e-02 2.98244313032087e-03 
5.01041666666667e+00 1.06983738176172e-02 2.96506287771175e-03 
5.03125000000000e+00 1.06062271587484e-02 2.94808598870593e-03 
5.05208333333333e+00 1.05148518336840e-02 2.93161540841674e-03 
5.07291666666667e+00 1.04242152368785e-02 2.91576144975377e-03 
5.09375000000000e+00 1.03342783702029e-02 2.90047845506856e-03 
5.11458333333333e+00 1.02450188310134e-02 2.88560616633401e-03 
5.13541666666667e+00 1.01564072627561e-02 2.87098397116434e-03 
5.15625000000000e+00 1.00684359005266e-02 2.85654080179546e-03 
5.17708333333333e+00 9.98111381707667e-03 2.84227343206907e-03 
5.19791666666667e+00 9.89444073304225e-03 2.82817312269897e-03 
5.21875000000000e+00 9.80840545622071e-03 2.81421946486127e-03 
5.23958333333333e+00 9.72299590958843e-03 2.80039203824549e-03 
5.26041666666667e+00 9.63820619675983e-03 2.78668161800320e-03 
5.28125000000000e+00 9.55403093190575e-03 2.77308538661020e-03 
5.30208333333333e+00 9.47046619750555e-03 2.75960115322157e-03 
5.32291666666667e+00 9.38750143726187e-03 2.74622735066119e-03 
5.34375000000000e+00 9.30512787514508e-03 2.73296165588455e-03 
5.36458333333333e+00 9.22334023157064e-03 2.71980194866364e-03 
5.38541666666667e+00 9.14213332234096e-03 2.70674637231140e-03 
5.40625000000000e+00 9.06150217585972e-03 2.69379052305523e-03 
5.42708333333333e+00 8.98144204784805e-03 2.68092888997115e-03 
5.44791666666667e+00 8.90194800776404e-03 2.66817132754454e-03 
5.46875000000000e+00 8.82301469787392e-03 2.65554039107441e-03 
5.48958333333333e+00 8.74463608900504e-03 2.64304566830025e-03 
5.51041666666667e+00 8.66680634935960e-03 2.63067192618827e-03 
5.53125000000000e+00 8.58953219472827e-03 2.61838928357391e-03 
5.55208333333333e+00 8.51280973687749e-03 2.60618464826914e-03 
5.57291666666667e+00 8.43663467069334e-03 2.59406084459417e-03 
5.59375000000000e+00 8.36100264570510e-03 2.58201945049996e-03 
5.61458333333333e+00 8.28590850331334e-03 2.57006097428172e-03 
5.63541666666667e+00 8.21134481100061e-03 2.55818995162397e-03 
5.65625000000000e+00 8.13730713358981e-03 2.54641145713935e-03 
5.67708333333333e+00 8.06379093065687e-03 2.53472650571992e-03 
5.69791666666667e+00 7.99079169566288e-03 2.52313368991782e-03 
5.71875000000000e+00 7.91830653204087e-03 2.51162732131766e-03 
5.73958333333333e+00 7.84633361562482e-03 2.50019955604309e-03 
5.76041666666667e+00 7.77486891659403e-03 2.48885322303834e-03 
5.78125000000000e+00 7.70390820431432e-03 2.47759688091178e-03 
5.80208333333333e+00 7.63344709919547e-03 2.46643079522272e-03 
5.82291666666667e+00 7.56347914281733e-03 2.45535297029241e-03 
5.84375000000000e+00 7.49399866460935e-03 2.44437183165536e-03 
5.86458333333333e+00 7.42500106258997e-03 2.43349873029131e-03 
5.88541666666667e+00 7.35648146205856e-03 2.42273590353026e-03 
5.90625000000000e+00 7.28842887623337e-03 2.41208378887576e-03 
5.92708333333333e+00 7.22081792827376e-03 2.40154637977929e-03 
5.94791666666667e+00 7.15363892444731e-03 2.39112332673255e-03 
5.96875000000000e+00 7.08688738500170e-03 2.38081280499172e-03 
5.98958333333333e+00 7.02055893825995e-03 2.37061299802412e-03 
6.01041666666667e+00 6.95464926762462e-03 2.36048961609874e-03 
6.03125000000000e+00 6.88904703800591e-03 2.35038251534834e-03 
6.05208333333333e+00 6.82372950740099e-03 2.34024483075146e-03 
6.07291666666667e+00 6.75869663054697e-03 2.33006875563025e-03 
6.09375000000000e+00 6.69394935248003e-03 2.31985456896834e-03 
6.11458333333333e+00 6.62949205123283e-03 2.30960756081336e-03 
6.13541666666667e+00 6.56533923626385e-03 2.29933380353943e-03 
6.15625000000000e+00 6.50149146983773e-03 2.28903681489800e-03 
6.17708333333333e+00 6.43794936396483e-03 2.27871709311075e-03 
6.19791666666667e+00 6.37471329424544e-03 2.26837422230400e-03 
6.21875000000000e+00 6.31178372193046e-03 2.25800369248853e-03 
6.23958333333333e+00 6.24916131298209e-03 2.24760228894547e-03 
6.26041666666667e+00 6.18684671485476e-03 2.23717255639295e-03 
6.28125000000000e+00 6.12484044015653e-03 2.22671775803151e-03 
6.30208333333333e+00 6.06314290345932e-03 2.21624039496721e-03 
6.32291666666667e+00 6.00175444005369e-03 2.20574110695756e-03 
6.34375000000000e+00 5.94067545600987e-03 2.19521663577939e-03 
6.36458333333333e+00 5.87990648647021e-03 2.18466513037946e-03 
6.38541666666667e+00 5.81944805840559e-03 2.17408797648136e-03 
6.40625000000000e+00 5.75930064869650e-03 2.16347916977957e-03 
6.42708333333333e+00 5.69946528527420e-03 2.15282557757624e-03 
6.44791666666667e+00 5.63994319418099e-03 2.14212263352039e-03 
6.46875000000000e+00 5.58073549259013e-03 2.13137309058533e-03 
