Energy(eV)           EEDF(eV^-(3/2))      Anisotropy(eV^-(3/2))
8.68055555555556e-03 8.43863865714729e-01 2.86763189715129e-02 
2.60416666666667e-02 8.42208005833549e-01 2.33860862407183e-02 
4.34027777777778e-02 8.39248908285775e-01 4.52006424624757e-02 
6.07638888888889e-02 8.35425640371508e-01 6.30470449244981e-02 
7.81250000000000e-02 8.31216866299241e-01 7.56130151387705e-02 
9.54861111111111e-02 8.26793878560286e-01 8.39164252288906e-02 
1.12847222222222e-01 8.22391553018144e-01 8.90453615362847e-02 
1.30208333333333e-01 8.18068999692767e-01 9.22452670407169e-02 
1.47569444444444e-01 8.13749675932899e-01 9.46754859377186e-02 
1.64930555555556e-01 8.09484063348266e-01 9.67438469563968e-02 
1.82291666666667e-01 8.05370124883197e-01 9.79348672571425e-02 
1.99652777777778e-01 8.01378304291980e-01 9.85706133057711e-02 
2.17013888888889e-01 7.97465513476272e-01 9.92201767337037e-02 
2.34375000000000e-01 7.93589669336001e-01 9.97377224692849e-02 
2.51736111111111e-01 7.89758111643964e-01 1.00148646912954e-01 
2.69097222222222e-01 7.86000732239844e-01 1.01260989240137e-01 
2.86458333333333e-01 7.82279689098799e-01 1.02825576224714e-01 
3.03819444444445e-01 7.78615617504063e-01 1.02647183419381e-01 
3.21180555555556e-01 7.75058750534317e-01 1.00430041350733e-01 
3.38541666666667e-01 7.71597721595205e-01 9.76128864345689e-02 
3.55902777777778e-01 7.68286062819213e-01 9.46525624565309e-02 
3.73263888888889e-01 7.65086085289384e-01 9.17580558503403e-02 
3.90625000000000e-01 7.61983386331005e-01 8.98731213587848e-02 
4.07986111111111e-01 7.58914553049450e-01 8.89751058549315e-02 
4.25347222222222e-01 7.55869988896136e-01 8.77430991287443e-02 
4.42708333333333e-01 7.52877185271610e-01 8.58052517252483e-02 
4.60069444444445e-01 7.49885847352238e-01 8.34498208707784e-02 
4.77430555555556e-01 7.47042929356930e-01 8.14099791371527e-02 
4.94791666666667e-01 7.44251154015632e-01 8.00672687475644e-02 
5.12152777777778e-01 7.41495882790113e-01 7.95847757560637e-02 
5.29513888888889e-01 7.38736709225878e-01 7.99630320561819e-02 
5.46875000000000e-01 7.35961670993904e-01 8.01310133636194e-02 
5.64236111111111e-01 7.33195919853967e-01 7.93587642999297e-02 
5.81597222222222e-01 7.30390773273087e-01 7.80687053294764e-02 
5.98958333333333e-01 7.27720068644342e-01 7.74960968787776e-02 
6.16319444444445e-01 7.25049635417382e-01 7.81454709159293e-02 
6.33680555555556e-01 7.22351811962441e-01 7.94559276958689e-02 
6.51041666666667e-01 7.19614465542413e-01 8.07475734780291e-02 
6.68402777777778e-01 7.16851598708271e-01 8.19327399179918e-02 
6.85763888888889e-01 7.14057014803699e-01 8.27150718379403e-02 
7.03125000000000e-01 7.11177010154528e-01 8.30665236086764e-02 
7.20486111111111e-01 7.08370257224577e-01 8.42616827106434e-02 
7.37847222222222e-01 7.05492336655273e-01 8.64532113092784e-02 
7.55208333333333e-01 7.02526343254810e-01 8.89607127644572e-02 
7.72569444444445e-01 6.99467057669727e-01 9.16277419879420e-02 
7.89930555555556e-01 6.96308073933861e-01 9.40972633625781e-02 
8.07291666666667e-01 6.92987055826623e-01 9.62418097797011e-02 
8.24652777777778e-01 6.89626816234979e-01 9.90431612253750e-02 
8.42013888888889e-01 6.86138312700511e-01 1.02777370676943e-01 
8.59375000000000e-01 6.82477713814210e-01 1.07039491336403e-01 
8.76736111111111e-01 6.78627063221667e-01 1.11652009073426e-01 
8.94097222222222e-01 6.74574141134266e-01 1.16415080769854e-01 
9.11458333333334e-01 6.70295231460782e-01 1.21152300156758e-01 
9.28819444444445e-01 6.65810169109037e-01 1.26105595909458e-01 
9.46180555555556e-01 6.61160952999602e-01 1.31659681456831e-01 
9.63541666666667e-01 6.56280240025185e-01 1.37674739810291e-01 
9.80902777777778e-01 6.51154808194929e-01 1.43968055266502e-01 
9.98263888888889e-01 6.45773814947216e-01 1.50453236385785e-01 
1.01562500000000e+00 6.40102327519750e-01 1.56974307241838e-01 
1.03298611111111e+00 6.34070005330075e-01 1.63390051376229e-01 
1.05034722222222e+00 6.27702458471747e-01 1.69859653847477e-01 
1.06770833333333e+00 6.21009979579485e-01 1.76501414230351e-01 
1.08506944444444e+00 6.13949377691218e-01 1.83166482965328e-01 
1.10243055555556e+00 6.06513319958820e-01 1.89737590280786e-01 
1.11979166666667e+00 5.98704620047159e-01 1.96195774846732e-01 
1.13715277777778e+00 5.90521413308228e-01 2.02465332323994e-01 
1.15451388888889e+00 5.81936058820734e-01 2.08503480179401e-01 
1.17187500000000e+00 5.73004056320226e-01 2.14439681758027e-01 
1.18923611111111e+00 5.63688304977147e-01 2.20198585879473e-01 
1.20659722222222e+00 5.53988404235426e-01 2.25663999961079e-01 
1.22395833333333e+00 5.43831212930062e-01 2.30733085067376e-01 
1.24131944444444e+00 5.33204476843865e-01 2.35312308404180e-01 
1.25868055555556e+00 5.22115478670757e-01 2.39335170816023e-01 
1.27604166666667e+00 5.10591738230332e-01 2.42745688889692e-01 
1.29340277777778e+00 4.98637642069532e-01 2.45434036244093e-01 
1.31076388888889e+00 4.86270198178278e-01 2.47300924719939e-01 
1.32812500000000e+00 4.73481551764755e-01 2.48272174746236e-01 
1.34548611111111e+00 4.60303022622490e-01 2.48293122421035e-01 
1.36284722222222e+00 4.46767113995189e-01 2.47343007848853e-01 
1.38020833333333e+00 4.32931873519514e-01 2.45438324264730e-01 
1.39756944444444e+00 4.18834578958907e-01 2.42599315745069e-01 
1.41493055555556e+00 4.04526905515405e-01 2.38860612398577e-01 
1.43229166666667e+00 3.90061634401358e-01 2.34286169449342e-01 
1.44965277777778e+00 3.75491135866797e-01 2.28957729744230e-01 
1.46701388888889e+00 3.60876293488713e-01 2.22975151162886e-01 
1.48437500000000e+00 3.46272949527069e-01 2.16455341399239e-01 
1.50173611111111e+00 3.31740390146814e-01 2.09528209038034e-01 
1.51909722222222e+00 3.17400536016263e-01 2.02303814786969e-01 
1.53645833333333e+00 3.03339766182741e-01 1.94902871429253e-01 
1.55381944444444e+00 2.89605350210389e-01 1.87443391394049e-01 
1.57118055555556e+00 2.76224347461463e-01 1.80025950122196e-01 
1.58854166666667e+00 2.63227182029618e-01 1.72733647773827e-01 
1.60590277777778e+00 2.50633840109561e-01 1.65637083311733e-01 
1.62326388888889e+00 2.38504942607933e-01 1.58758958613578e-01 
1.64062500000000e+00 2.26853426441501e-01 1.52119975747842e-01 
1.65798611111111e+00 2.15668312230081e-01 1.45719757769054e-01 
1.67534722222222e+00 2.04936580395723e-01 1.39545474648938e-01 
1.69270833333333e+00 1.94646931820859e-01 1.33574420467774e-01 
1.71006944444444e+00 1.84782655592544e-01 1.27790940966795e-01 
1.72743055555556e+00 1.75398847917169e-01 1.22148107880682e-01 
1.74479166666667e+00 1.66471742415915e-01 1.16631535965375e-01 
1.76215277777778e+00 1.57982349059392e-01 1.11223850682429e-01 
1.77951388888889e+00 1.49915727593484e-01 1.05921241904336e-01 
1.79687500000000e+00 1.42256852605116e-01 1.00731116945721e-01 
1.81423611111111e+00 1.34992802659037e-01 9.56750499431421e-02 
1.83159722222222e+00 1.28114228262422e-01 9.07793583814862e-02 
1.84895833333333e+00 1.21605726279406e-01 8.60747250008532e-02 
1.86631944444444e+00 1.15456319426749e-01 8.15904210325553e-02 
1.88368055555556e+00 1.09651448643299e-01 7.73491498456960e-02 
1.90104166666667e+00 1.04175568381858e-01 7.33687561764985e-02 
1.91840277777778e+00 9.90401944309668e-02 6.96476715695475e-02 
1.93576388888889e+00 9.42447613048299e-02 6.61750404555648e-02 
1.95312500000000e+00 8.97677149842122e-02 6.29359005338464e-02 
1.97048611111111e+00 8.55913148445783e-02 5.99059030926947e-02 
1.98784722222222e+00 8.16942923031022e-02 5.70629396263268e-02 
2.00520833333333e+00 7.80618947964869e-02 5.43860524785823e-02 
2.02256944444445e+00 7.46749692299230e-02 5.18591416808807e-02 
2.03993055555556e+00 7.15158146180667e-02 4.94673321529913e-02 
2.05729166666667e+00 6.85681507209234e-02 4.72011074103335e-02 
2.07465277777778e+00 6.58148091887944e-02 4.50532497079080e-02 
2.09201388888889e+00 6.32393388302597e-02 4.30159271242721e-02 
2.10937500000000e+00 6.08278966632776e-02 4.10755235656041e-02 
2.12673611111111e+00 5.85435171923081e-02 3.92337025022006e-02 
2.14409722222222e+00 5.63789019437584e-02 3.74776688645055e-02 
2.16145833333333e+00 5.43279630190826e-02 3.57999770469181e-02 
2.17881944444445e+00 5.23840686984965e-02 3.41960542891143e-02 
2.19618055555556e+00 5.05465284635736e-02 3.26621637985522e-02 
2.21354166666667e+00 4.88096572087154e-02 3.11989461510114e-02 
2.23090277777778e+00 4.71667212747112e-02 2.98090944420357e-02 
2.24826388888889e+00 4.56157280284718e-02 2.84929054678786e-02 
2.26562500000000e+00 4.41519294415824e-02 2.72518559406322e-02 
2.28298611111111e+00 4.27709483924266e-02 2.60872187335583e-02 
2.30034722222222e+00 4.14675522986069e-02 2.49964433100279e-02 
2.31770833333333e+00 4.02334288484961e-02 2.39748802392939e-02 
2.33506944444445e+00 3.90632997683888e-02 2.30143539440137e-02 
2.35243055555556e+00 3.79499909700562e-02 2.21072021871551e-02 
2.36979166666667e+00 3.68890501676173e-02 2.12467054416372e-02 
2.38715277777778e+00 3.58767628755513e-02 2.04271478295098e-02 
2.40451388888889e+00 3.49098694217348e-02 1.96430032819520e-02 
2.42187500000000e+00 3.39870997725035e-02 1.88914429154162e-02 
2.43923611111111e+00 3.31075560683756e-02 1.81704027052905e-02 
2.45659722222222e+00 3.22696301214080e-02 1.74812371833396e-02 
2.47395833333333e+00 3.14741379094197e-02 1.68263088314462e-02 
2.49131944444445e+00 3.07183415548402e-02 1.62078686187323e-02 
2.50868055555556e+00 3.00011302875748e-02 1.56255565760548e-02 
2.52604166666667e+00 2.93165169142773e-02 1.50803679434788e-02 
2.54340277777778e+00 2.86614796308415e-02 1.45688137296561e-02 
2.56076388888889e+00 2.80339507294613e-02 1.40888813281117e-02 
2.57812500000000e+00 2.74314464378988e-02 1.36359397770292e-02 
2.59548611111111e+00 2.68505338811194e-02 1.32045831748513e-02 
2.61284722222222e+00 2.62908922636374e-02 1.27903861916676e-02 
2.63020833333333e+00 2.57502674475736e-02 1.23900757130900e-02 
2.64756944444445e+00 2.52284172758930e-02 1.20014465656649e-02 
2.66493055555556e+00 2.47254995021687e-02 1.16248226442210e-02 
2.68229166666667e+00 2.42406447651627e-02 1.12605797423099e-02 
2.69965277777778e+00 2.37741038112120e-02 1.09109577986992e-02 
2.71701388888889e+00 2.33259691644094e-02 1.05782363951810e-02 
2.73437500000000e+00 2.28946051695406e-02 1.02635746668654e-02 
2.75173611111111e+00 2.24799978536163e-02 9.96752021592709e-03 
2.76909722222222e+00 2.20805072061863e-02 9.68931965555610e-03 
2.78645833333333e+00 2.16946363378970e-02 9.42645817916227e-03 
2.80381944444445e+00 2.13216966232331e-02 9.17680921988129e-03 
2.82118055555556e+00 2.09596489058251e-02 8.93783488968513e-03 
2.83854166666667e+00 2.06075890899124e-02 8.70722094075898e-03 
2.85590277777778e+00 2.02655429114553e-02 8.48362134635328e-03 
2.87326388888889e+00 1.99326498459238e-02 8.26616238207370e-03 
2.89062500000000e+00 1.96091765818849e-02 8.05510731955100e-03 
2.90798611111111e+00 1.92950467083224e-02 7.85150100113903e-03 
2.92534722222222e+00 1.89898658481462e-02 7.65607803472766e-03 
2.94270833333333e+00 1.86936632555733e-02 7.46984719460572e-03 
2.96006944444445e+00 1.84059412337906e-02 7.29317137560364e-03 
2.97743055555556e+00 1.81260759303191e-02 7.12581455315428e-03 
2.99479166666667e+00 1.78537622873716e-02 6.96719954070655e-03 
3.01215277777778e+00 1.75881204270811e-02 6.81608493701016e-03 
3.02951388888889e+00 1.73287923760924e-02 6.67116344010850e-03 
3.04687500000000e+00 1.70754790527169e-02 6.53138885593229e-03 
3.06423611111111e+00 1.68277323279853e-02 6.39566896834583e-03 
3.08159722222222e+00 1.65854708510171e-02 6.26343584423008e-03 
3.09895833333333e+00 1.63486241581370e-02 6.13423726197274e-03 
3.11631944444445e+00 1.61170389454897e-02 6.00805161909713e-03 
3.13368055555556e+00 1.58908064689968e-02 5.88580917621306e-03 
3.15104166666667e+00 1.56697391955481e-02 5.76828496605856e-03 
3.16840277777778e+00 1.54536240669363e-02 5.65564332510509e-03 
3.18576388888889e+00 1.52423121444428e-02 5.54782375389555e-03 
3.20312500000000e+00 1.50354332973415e-02 5.44447331984727e-03 
3.22048611111111e+00 1.48328045654218e-02 5.34521499970250e-03 
3.23784722222222e+00 1.46342389154907e-02 5.24944981277865e-03 
3.25520833333333e+00 1.44394674096610e-02 5.15612433356114e-03 
3.27256944444445e+00 1.42484028700150e-02 5.06450373922232e-03 
3.28993055555556e+00 1.40609717792113e-02 4.97432329968769e-03 
3.30729166666667e+00 1.38770926921919e-02 4.88556541640283e-03 
3.32465277777778e+00 1.36967367483415e-02 4.79841486788109e-03 
3.34201388888889e+00 1.35198501432189e-02 4.71287484525761e-03 
3.35937500000000e+00 1.33463564094604e-02 4.62889307119468e-03 
3.37673611111111e+00 1.31762327282175e-02 4.54654928709738e-03 
3.39409722222222e+00 1.30093734210615e-02 4.46578983291644e-03 
3.41145833333333e+00 1.28456745700504e-02 4.38657831581105e-03 
3.42881944444445e+00 1.26850632891980e-02 4.30894994436167e-03 
3.44618055555556e+00 1.25274025860836e-02 4.23268945217798e-03 
3.46354166666667e+00 1.23726282460211e-02 4.15754122125773e-03 
3.48090277777778e+00 1.22206983944995e-02 4.08339351453004e-03 
3.49826388888889e+00 1.20715552049111e-02 4.01015810438399e-03 
3.51562500000000e+00 1.19251731733941e-02 3.93785765056266e-03 
3.53298611111111e+00 1.17815343854568e-02 3.86656811037658e-03 
3.55034722222222e+00 1.16405954797230e-02 3.79627205873571e-03 
3.56770833333333e+00 1.15023094664710e-02 3.72716371693230e-03 
3.58506944444445e+00 1.13666899226163e-02 3.65980050186848e-03 
3.60243055555556e+00 1.12336992349820e-02 3.59475052613320e-03 
3.61979166666667e+00 1.11032874465034e-02 3.53220797453172e-03 
3.63715277777778e+00 1.09753083250095e-02 3.47183707724028e-03 
3.65451388888889e+00 1.08497487494735e-02 3.41304657052273e-03 
3.67187500000000e+00 1.07265727240122e-02 3.35558144496553e-03 
3.68923611111111e+00 1.06057177257270e-02 3.29936943785691e-03 
3.70659722222222e+00 1.04871265254725e-02 3.24441088613767e-03 
3.72395833333333e+00 1.03707588513735e-02 3.19080895017973e-03 
3.74131944444445e+00 1.02565448169470e-02 3.13856406887006e-03 
3.75868055555556e+00 1.01444259843529e-02 3.08750462035944e-03 
3.77604166666667e+00 1.00343616044060e-02 3.03748024398286e-03 
3.79340277777778e+00 9.92630133941664e-03 2.98842354929168e-03 
3.81076388888889e+00 9.82018969983101e-03 2.94031869319508e-03 
3.82812500000000e+00 9.71598799481580e-03 2.89316411228372e-03 
3.84548611111111e+00 9.61364666886310e-03 2.84691120944092e-03 
3.86284722222222e+00 9.51312187454113e-03 2.80149326095722e-03 
3.88020833333333e+00 9.41438202967063e-03 2.75686736623064e-03 
3.89756944444445e+00 9.31737394330831e-03 2.71303557892881e-03 
3.91493055555556e+00 9.22206902726797e-03 2.67009080839606e-03 
3.93229166666667e+00 9.12844699192384e-03 2.62813051758597e-03 
3.94965277777778e+00 9.03646595789178e-03 2.58717268113650e-03 
3.96701388888889e+00 8.94608426463063e-03 2.54724014928056e-03 
3.98437500000000e+00 8.85730407370024e-03 2.50833435532360e-03 
4.00173611111111e+00 8.77009361997953e-03 2.47043566568000e-03 
4.01909722222222e+00 8.68434837783672e-03 2.43355995375398e-03 
4.03645833333333e+00 8.59998521770181e-03 2.39770406585035e-03 
4.05381944444445e+00 8.51696283626883e-03 2.36283400899254e-03 
4.07118055555556e+00 8.43527647250546e-03 2.32891159920741e-03 
4.08854166666667e+00 8.35490346905650e-03 2.29592478547970e-03 
4.10590277777778e+00 8.27580519935222e-03 2.26385992950465e-03 
4.12326388888889e+00 8.19792794217088e-03 2.23268064039309e-03 
4.14062500000000e+00 8.12123586919120e-03 2.20232955213303e-03 
4.15798611111111e+00 8.04569777724396e-03 2.17274985380517e-03 
4.17534722222222e+00 7.97128439030939e-03 2.14391383364721e-03 
4.19270833333333e+00 7.89796531427641e-03 2.11582010969719e-03 
4.21006944444445e+00 7.82571219786814e-03 2.08847737071171e-03 
4.22743055555556e+00 7.75451213112046e-03 2.06189600407644e-03 
4.24479166666667e+00 7.68433322983078e-03 2.03607294007185e-03 
4.26215277777778e+00 7.61514251606913e-03 2.01100053684482e-03 
4.27951388888889e+00 7.54691071365671e-03 1.98668687640845e-03 
4.29687500000000e+00 7.47960828155667e-03 1.96313173114158e-03 
4.31423611111111e+00 7.41320639457440e-03 1.94031964386975e-03 
4.33159722222222e+00 7.34767747429644e-03 1.91823393390996e-03 
4.34895833333333e+00 7.28299453571306e-03 1.89684746413029e-03 
4.36631944444445e+00 7.21913138969271e-03 1.87611915296375e-03 
4.38368055555556e+00 7.15606374087299e-03 1.85601639034513e-03 
4.40104166666667e+00 7.09376766734513e-03 1.83651549356996e-03 
4.41840277777778e+00 7.03221898017823e-03 1.81758830860439e-03 
4.43576388888889e+00 6.97140373103359e-03 1.79920801966274e-03 
4.45312500000000e+00 6.91131743198500e-03 1.78135731258956e-03 
4.47048611111111e+00 6.85193945743373e-03 1.76402581618813e-03 
4.48784722222222e+00 6.79324990630492e-03 1.74720130056974e-03 
4.50520833333333e+00 6.73522945704154e-03 1.73082687941955e-03 
4.52256944444445e+00 6.67784563249536e-03 1.71479726781153e-03 
4.53993055555556e+00 6.62114043045367e-03 1.69904443703774e-03 
4.55729166666667e+00 6.56512218125792e-03 1.68357922279031e-03 
4.57465277777778e+00 6.50977764848162e-03 1.66840954013278e-03 
4.59201388888889e+00 6.45509380580595e-03 1.65352791446324e-03 
4.60937500000000e+00 6.40105775346717e-03 1.63891401490518e-03 
4.62673611111111e+00 6.34765406833968e-03 1.62453735055531e-03 
4.64409722222222e+00 6.29487563016898e-03 1.61037635825449e-03 
4.66145833333333e+00 6.24271272896372e-03 1.59642131266656e-03 
4.67881944444445e+00 6.19115566682250e-03 1.58266494763965e-03 
4.69618055555556e+00 6.14019517918479e-03 1.56910191696036e-03 
4.71354166666667e+00 6.08982199888733e-03 1.55572567032513e-03 
4.73090277777778e+00 6.04002690394858e-03 1.54253656202909e-03 
4.74826388888889e+00 5.99080110802625e-03 1.52959055167285e-03 
4.76562500000000e+00 5.94213222651747e-03 1.51699509064703e-03 
4.78298611111111e+00 5.89400477023658e-03 1.50481443939526e-03 
4.80034722222222e+00 5.84640260891792e-03 1.49305236920631e-03 
4.81770833333333e+00 5.79931047975515e-03 1.48170398761401e-03 
4.83506944444445e+00 5.75271370633668e-03 1.47077301822653e-03 
4.85243055555556e+00 5.70660216133253e-03 1.46026201791237e-03 
4.86979166666667e+00 5.66096040729529e-03 1.45016666557874e-03 
4.88715277777778e+00 5.61577321428502e-03 1.44047822376848e-03 
4.90451388888889e+00 5.57102595124367e-03 1.43114794397892e-03 
4.92187500000000e+00 5.52669370761369e-03 1.42207861342767e-03 
4.93923611111111e+00 5.48276422420972e-03 1.41320137869404e-03 
4.95659722222222e+00 5.43923165666740e-03 1.40450027038898e-03 
4.97395833333333e+00 5.39608896608753e-03 1.39597181110759e-03 
4.99131944444445e+00 5.35332932621659e-03 1.38761255409099e-03 
5.00868055555556e+00 5.31094590366008e-03 1.37942086603130e-03 
5.02604166666667e+00 5.26890810299992e-03 1.37140682038287e-03 
5.04340277777778e+00 5.22720849282980e-03 1.36361199912959e-03 
5.06076388888889e+00 5.18583578075112e-03 1.35609127159107e-03 
5.07812500000000e+00 5.14477479898703e-03 1.34884309756157e-03 
5.09548611111111e+00 5.10401353022843e-03 1.34182643787232e-03 
5.11284722222222e+00 5.06354255049248e-03 1.33498266199839e-03 
5.13020833333333e+00 5.02335021279206e-03 1.32824662236411e-03 
5.14756944444445e+00 4.98343330334920e-03 1.32159034748316e-03 
5.16493055555556e+00 4.94379073639817e-03 1.31501322072451e-03 
5.18229166666667e+00 4.90442650491792e-03 1.30851366949335e-03 
5.19965277777778e+00 4.86533740698970e-03 1.30208843036227e-03 
5.21701388888889e+00 4.82651868265035e-03 1.29572883723974e-03 
5.23437500000000e+00 4.78796586974142e-03 1.28942630030530e-03 
5.25173611111111e+00 4.74967648661766e-03 1.28317707285620e-03 
5.26909722222222e+00 4.71164814595708e-03 1.27698007899225e-03 
5.28645833333333e+00 4.67387904214688e-03 1.27083437362770e-03 
5.30381944444445e+00 4.63636711312116e-03 1.26473907443299e-03 
5.32118055555556e+00 4.59910796177145e-03 1.25869359856022e-03 
5.33854166666667e+00 4.56209851048630e-03 1.25269712382338e-03 
5.35590277777778e+00 4.52533658974412e-03 1.24674870643974e-03 
5.37326388888889e+00 4.48882004101053e-03 1.24084738425444e-03 
5.39062500000000e+00 4.45254673491078e-03 1.23499227221222e-03 
