Energy(eV)           EEDF(eV^-(3/2))      Anisotropy(eV^-(3/2))
1.50000000000000e-02 4.62988374140926e-01 7.73385720771877e-03 
4.50000000000000e-02 4.62791907255374e-01 6.06809987886836e-03 
7.50000000000000e-02 4.62452224206872e-01 1.09289443026363e-02 
1.05000000000000e-01 4.62000235847005e-01 1.43312180532658e-02 
1.35000000000000e-01 4.61488937798711e-01 1.65243767825737e-02 
1.65000000000000e-01 4.60913332195554e-01 1.80788605884146e-02 
1.95000000000000e-01 4.60311285935438e-01 1.91360479827391e-02 
2.25000000000000e-01 4.59683647488150e-01 1.99353259112760e-02 
2.55000000000000e-01 4.59023013537146e-01 2.10453220770581e-02 
2.85000000000000e-01 4.58314756627730e-01 2.22931898364651e-02 
3.15000000000000e-01 4.57574493818981e-01 2.27221157209852e-02 
3.45000000000000e-01 4.56823915045817e-01 2.24599782812531e-02 
3.75000000000000e-01 4.56078473860684e-01 2.26215873046154e-02 
4.05000000000000e-01 4.55296028588209e-01 2.33477950621899e-02 
4.35000000000000e-01 4.54471620717502e-01 2.35585823725960e-02 
4.65000000000000e-01 4.53626671622503e-01 2.33571631874114e-02 
4.95000000000000e-01 4.52786936172327e-01 2.40541359690163e-02 
5.25000000000000e-01 4.51882997309720e-01 2.56172795320589e-02 
5.55000000000000e-01 4.50912351080266e-01 2.66675650855497e-02 
5.85000000000000e-01 4.49890965165618e-01 2.72700317397075e-02 
6.15000000000000e-01 4.48864770988931e-01 2.87939567231382e-02 
6.45000000000000e-01 4.47755454480130e-01 3.12065960950986e-02 
6.75000000000000e-01 4.46548628582036e-01 3.35318531717328e-02 
7.05000000000000e-01 4.45224998931137e-01 3.57534885069275e-02 
7.35000000000000e-01 4.43842495261707e-01 3.89022310624845e-02 
7.65000000000000e-01 4.42308228482948e-01 4.29652883378036e-02 
7.95000000000000e-01 4.40596959901504e-01 4.74535737288293e-02 
8.25000000000000e-01 4.38669973333522e-01 5.22125445438956e-02 
8.55000000000000e-01 4.36537998234096e-01 5.76189449123489e-02 
8.85000000000000e-01 4.34139844828713e-01 6.36857128922453e-02 
9.15000000000000e-01 4.31446387340073e-01 7.02362709937095e-02 
9.45000000000000e-01 4.28450230273372e-01 7.72565298099726e-02 
9.75000000000000e-01 4.25126548953798e-01 8.46693343207542e-02 
1.00500000000000e+00 4.21455607309783e-01 9.23195773107715e-02 
1.03500000000000e+00 4.17372033359533e-01 1.00004057931815e-01 
1.06500000000000e+00 4.12832874947570e-01 1.07650554579651e-01 
1.09500000000000e+00 4.07814463230908e-01 1.15185353140422e-01 
1.12500000000000e+00 4.02305228891140e-01 1.22518701303310e-01 
1.15500000000000e+00 3.96281386407834e-01 1.29663623003948e-01 
1.18500000000000e+00 3.89767183911971e-01 1.36778659391245e-01 
1.21500000000000e+00 3.82712752770320e-01 1.43801238908281e-01 
1.24500000000000e+00 3.74978582700287e-01 1.50507828100132e-01 
1.27500000000000e+00 3.66538391181198e-01 1.56699999036805e-01 
1.30500000000000e+00 3.57378654022946e-01 1.62058294611914e-01 
1.33500000000000e+00 3.47467466312807e-01 1.66237253283635e-01 
1.36500000000000e+00 3.36808091680460e-01 1.68948255209320e-01 
1.39500000000000e+00 3.25464451750615e-01 1.70001982539562e-01 
1.42500000000000e+00 3.13502551176296e-01 1.69320821936322e-01 
1.45500000000000e+00 3.01020498488734e-01 1.66974436868909e-01 
1.48500000000000e+00 2.88138776662699e-01 1.63190988508613e-01 
1.51500000000000e+00 2.74989294340784e-01 1.58335581495458e-01 
1.54500000000000e+00 2.61885594537959e-01 1.52770466780140e-01 
1.57500000000000e+00 2.48941838658936e-01 1.46892222367244e-01 
1.60500000000000e+00 2.36251044455171e-01 1.41005822962170e-01 
1.63500000000000e+00 2.23950111814592e-01 1.35276857382331e-01 
1.66500000000000e+00 2.12108204571718e-01 1.29756136897461e-01 
1.69500000000000e+00 2.00719480811588e-01 1.24392415814524e-01 
1.72500000000000e+00 1.89815552458436e-01 1.19048082374960e-01 
1.75500000000000e+00 1.79471631850818e-01 1.13551679381118e-01 
1.78500000000000e+00 1.69677168006549e-01 1.07828136680369e-01 
1.81500000000000e+00 1.60435354351753e-01 1.01906455634009e-01 
1.84500000000000e+00 1.51753044311540e-01 9.59374610780920e-02 
1.87500000000000e+00 1.43638214770268e-01 9.01425078479079e-02 
1.90500000000000e+00 1.36075707032261e-01 8.47427701295816e-02 
1.93500000000000e+00 1.29121031632020e-01 7.98373271734379e-02 
1.96500000000000e+00 1.22768725442751e-01 7.54405273421538e-02 
1.99500000000000e+00 1.16973247589720e-01 7.14697476210283e-02 
2.02500000000000e+00 1.11694476090256e-01 6.77893900550311e-02 
2.05500000000000e+00 1.06883731242974e-01 6.42834346778532e-02 
2.08500000000000e+00 1.02497336572945e-01 6.08889512892346e-02 
2.11500000000000e+00 9.84897338714636e-02 5.75886157449816e-02 
2.14500000000000e+00 9.47541190904976e-02 5.44425330347090e-02 
2.17500000000000e+00 9.12745851114857e-02 5.14733590854354e-02 
2.20500000000000e+00 8.80420197585898e-02 4.87048448546890e-02 
2.23500000000000e+00 8.50398101415054e-02 4.61444460380422e-02 
2.26500000000000e+00 8.22585995010946e-02 4.37805306807535e-02 
2.29500000000000e+00 7.96876510892364e-02 4.15879742021748e-02 
2.32500000000000e+00 7.73030966063941e-02 3.95383195095034e-02 
2.35500000000000e+00 7.50817837990709e-02 3.76109942928253e-02 
2.38500000000000e+00 7.30018190093482e-02 3.57941697946337e-02 
2.41500000000000e+00 7.10469679578117e-02 3.40852770145243e-02 
2.44500000000000e+00 6.92156941314732e-02 3.24885886815494e-02 
2.47500000000000e+00 6.75052877446913e-02 3.10056709755858e-02 
2.50500000000000e+00 6.59130902580932e-02 2.96344123256112e-02 
2.53500000000000e+00 6.44265609692585e-02 2.83745989395235e-02 
2.56500000000000e+00 6.30262966139136e-02 2.72117172014963e-02 
2.59500000000000e+00 6.17000367073054e-02 2.61271083579731e-02 
2.62500000000000e+00 6.04387967777981e-02 2.51041115374560e-02 
2.65500000000000e+00 5.92340335598644e-02 2.41297745703860e-02 
2.68500000000000e+00 5.80874143255317e-02 2.32063571276736e-02 
2.71500000000000e+00 5.70001828493465e-02 2.23431569102887e-02 
2.74500000000000e+00 5.59694394784200e-02 2.15461844110059e-02 
2.77500000000000e+00 5.49930639571751e-02 2.08157763527852e-02 
2.80500000000000e+00 5.40626597298787e-02 2.01406303225601e-02 
2.83500000000000e+00 5.31691404078567e-02 1.95068011698730e-02 
2.86500000000000e+00 5.23093509396200e-02 1.89061171831727e-02 
2.89500000000000e+00 5.14805793548133e-02 1.83355295510018e-02 
2.92500000000000e+00 5.06835863632952e-02 1.77994582603008e-02 
2.95500000000000e+00 4.99186013857584e-02 1.73039085520105e-02 
2.98500000000000e+00 4.91823479032438e-02 1.68482991340058e-02 
3.01500000000000e+00 4.84722112184661e-02 1.64278525760508e-02 
3.04500000000000e+00 4.77847119050530e-02 1.60343437789101e-02 
3.07500000000000e+00 4.71169708754446e-02 1.56602720048873e-02 
3.10500000000000e+00 4.64688645670394e-02 1.53038011946560e-02 
3.13500000000000e+00 4.58397315561113e-02 1.49657969197590e-02 
3.16500000000000e+00 4.52294214818308e-02 1.46486689823190e-02 
3.19500000000000e+00 4.46371988170426e-02 1.43542909784081e-02 
3.22500000000000e+00 4.40608889053163e-02 1.40801350259181e-02 
3.25500000000000e+00 4.34992591588034e-02 1.38213952273527e-02 
3.28500000000000e+00 4.29510346371145e-02 1.35735568312842e-02 
3.31500000000000e+00 4.24155658507110e-02 1.33344330622343e-02 
3.34500000000000e+00 4.18926425345762e-02 1.31048819188571e-02 
3.37500000000000e+00 4.13818250428963e-02 1.28855657051288e-02 
3.40500000000000e+00 4.08826207771843e-02 1.26763092630174e-02 
3.43500000000000e+00 4.03943190998151e-02 1.24760737202757e-02 
3.46500000000000e+00 3.99160555252246e-02 1.22828460686865e-02 
3.49500000000000e+00 3.94474101893625e-02 1.20951216978692e-02 
3.52500000000000e+00 3.89880891754120e-02 1.19126198451319e-02 
3.55500000000000e+00 3.85379565249663e-02 1.17359197258454e-02 
3.58500000000000e+00 3.80967861443382e-02 1.15663334437026e-02 
3.61500000000000e+00 3.76643466158326e-02 1.14052558751210e-02 
3.64500000000000e+00 3.72401690212549e-02 1.12523865253627e-02 
3.67500000000000e+00 3.68239481600424e-02 1.11056221325994e-02 
3.70500000000000e+00 3.64154013721971e-02 1.09637898880582e-02 
3.73500000000000e+00 3.60143324392335e-02 1.08270164433479e-02 
3.76500000000000e+00 3.56205013102706e-02 1.06953449111107e-02 
3.79500000000000e+00 3.52336854970460e-02 1.05682714152963e-02 
3.82500000000000e+00 3.48535287145426e-02 1.04452255062221e-02 
3.85500000000000e+00 3.44797124438158e-02 1.03257459749753e-02 
3.88500000000000e+00 3.41120095239157e-02 1.02093555709577e-02 
3.91500000000000e+00 3.37501949190117e-02 1.00960272821628e-02 
3.94500000000000e+00 3.33943142235704e-02 9.98616875933218e-03 
3.97500000000000e+00 3.30441781584673e-02 9.88007132751897e-03 
4.00500000000000e+00 3.26997663518765e-02 9.77767565960612e-03 
4.03500000000000e+00 3.23602634057860e-02 9.67894591276295e-03 
4.06500000000000e+00 3.20251636114040e-02 9.58362970864059e-03 
4.09500000000000e+00 3.16944750602723e-02 9.49150377236535e-03 
4.12500000000000e+00 3.13680158001384e-02 9.40249882179031e-03 
4.15500000000000e+00 3.10455811537117e-02 9.31643778039946e-03 
4.18500000000000e+00 3.07270452511729e-02 9.23306701305475e-03 
4.21500000000000e+00 3.04122748256006e-02 9.15228995605063e-03 
4.24500000000000e+00 3.01012415242933e-02 9.07408011923733e-03 
4.27500000000000e+00 2.97938072278160e-02 8.99841354927627e-03 
4.30500000000000e+00 2.94898579779586e-02 8.92527826077256e-03 
4.33500000000000e+00 2.91892943539748e-02 8.85463832900364e-03 
4.36500000000000e+00 2.88920162518058e-02 8.78636926781001e-03 
4.39500000000000e+00 2.85979219579009e-02 8.72027945067153e-03 
4.42500000000000e+00 2.83068979638187e-02 8.65619026245251e-03 
4.45500000000000e+00 2.80188856384755e-02 8.59396434263741e-03 
4.48500000000000e+00 2.77338386620132e-02 8.53350651797781e-03 
4.51500000000000e+00 2.74516788871293e-02 8.47456640598791e-03 
4.54500000000000e+00 2.71724026345997e-02 8.41675167803294e-03 
4.57500000000000e+00 2.68961556653985e-02 8.35990073678350e-03 
4.60500000000000e+00 2.66228829885862e-02 8.30402136053957e-03 
4.63500000000000e+00 2.63525216894798e-02 8.24900928380879e-03 
4.66500000000000e+00 2.60850331963217e-02 8.19474048530609e-03 
4.69500000000000e+00 2.58203749430768e-02 8.14113787956805e-03 
4.72500000000000e+00 2.55584975860940e-02 8.08817129326564e-03 
4.75500000000000e+00 2.52993440046725e-02 8.03599400291537e-03 
4.78500000000000e+00 2.50428657763624e-02 7.98496331548514e-03 
4.81500000000000e+00 2.47890026672369e-02 7.93533194934698e-03 
4.84500000000000e+00 2.45377251092565e-02 7.88715297189838e-03 
4.87500000000000e+00 2.42889922660554e-02 7.84043035134109e-03 
4.90500000000000e+00 2.40427417990770e-02 7.79501666069188e-03 
4.93500000000000e+00 2.37988875349101e-02 7.75057428010035e-03 
4.96500000000000e+00 2.35573779854443e-02 7.70683846900987e-03 
4.99500000000000e+00 2.33181821318570e-02 7.66372986400446e-03 
5.02500000000000e+00 2.30811802143899e-02 7.62123827253953e-03 
5.05500000000000e+00 2.28461663074753e-02 7.57947465483291e-03 
5.08500000000000e+00 2.26130773747817e-02 7.53860099168375e-03 
5.11500000000000e+00 2.23818521446261e-02 7.49849530643293e-03 
5.14500000000000e+00 2.21524311299934e-02 7.45884308570357e-03 
5.17500000000000e+00 2.19248079282715e-02 7.41951085201430e-03 
5.20500000000000e+00 2.16989968679227e-02 7.38047813666330e-03 
5.23500000000000e+00 2.14749656033045e-02 7.34171069580101e-03 
5.26500000000000e+00 2.12526905756086e-02 7.30318459693701e-03 
5.29500000000000e+00 2.10321584885645e-02 7.26489203570547e-03 
5.32500000000000e+00 2.08133479835295e-02 7.22683020881211e-03 
5.35500000000000e+00 2.05962272164940e-02 7.18899758949087e-03 
5.38500000000000e+00 2.03807821293679e-02 7.15138750411825e-03 
5.41500000000000e+00 2.01669990898517e-02 7.11398965148788e-03 
5.44500000000000e+00 1.99548653008100e-02 7.07680386635772e-03 
5.47500000000000e+00 1.97443671961959e-02 7.03985417187174e-03 
5.50500000000000e+00 1.95354906205649e-02 7.00314673340371e-03 
5.53500000000000e+00 1.93282477566135e-02 6.96664152236973e-03 
5.56500000000000e+00 1.91226398555109e-02 6.93030609516518e-03 
5.59500000000000e+00 1.89186549914942e-02 6.89414004526188e-03 
5.62500000000000e+00 1.87162768485123e-02 6.85815722102602e-03 
5.65500000000000e+00 1.85154850336958e-02 6.82237596225005e-03 
5.68500000000000e+00 1.83162670210498e-02 6.78680873320027e-03 
5.71500000000000e+00 1.81186100457601e-02 6.75145015195283e-03 
5.74500000000000e+00 1.79225143549388e-02 6.71627865072493e-03 
5.77500000000000e+00 1.77279683357408e-02 6.68128617013918e-03 
5.80500000000000e+00 1.75349605013169e-02 6.64647470447592e-03 
5.83500000000000e+00 1.73434716649721e-02 6.61184777680130e-03 
5.86500000000000e+00 1.71534865622718e-02 6.57742434201387e-03 
5.89500000000000e+00 1.69649908140637e-02 6.54322849218545e-03 
5.92500000000000e+00 1.67779337218197e-02 6.50927700650343e-03 
5.95500000000000e+00 1.65922467557676e-02 6.47558150509321e-03 
5.98500000000000e+00 1.64079178885968e-02 6.44214099152117e-03 
6.01500000000000e+00 1.62249351947315e-02 6.40885554144117e-03 
6.04500000000000e+00 1.60429836564886e-02 6.37555856280039e-03 
6.07500000000000e+00 1.58620304512839e-02 6.34212063738370e-03 
6.10500000000000e+00 1.56820781414205e-02 6.30853968748781e-03 
6.13500000000000e+00 1.55031608921264e-02 6.27483647055434e-03 
6.16500000000000e+00 1.53252963506252e-02 6.24103168868601e-03 
6.19500000000000e+00 1.51484860930660e-02 6.20713061135912e-03 
6.22500000000000e+00 1.49727316612672e-02 6.17312463907198e-03 
6.25500000000000e+00 1.47980353251714e-02 6.13900892930073e-03 
6.28500000000000e+00 1.46243988036904e-02 6.10479329406532e-03 
6.31500000000000e+00 1.44518232838469e-02 6.07049185232879e-03 
6.34500000000000e+00 1.42803096776952e-02 6.03610934363135e-03 
6.37500000000000e+00 1.41098589824257e-02 6.00164096904883e-03 
6.40500000000000e+00 1.39404724192201e-02 5.96706684647515e-03 
6.43500000000000e+00 1.37721530740791e-02 5.93235525497454e-03 
6.46500000000000e+00 1.36049043937422e-02 5.89749565242571e-03 
6.49500000000000e+00 1.34387291136072e-02 5.86250210650785e-03 
6.52500000000000e+00 1.32736293632317e-02 5.82739777406394e-03 
6.55500000000000e+00 1.31096063709094e-02 5.79220403034556e-03 
6.58500000000000e+00 1.29466612110661e-02 5.75693146169865e-03 
6.61500000000000e+00 1.27847947816243e-02 5.72157836671584e-03 
6.64500000000000e+00 1.26240188445578e-02 5.68613632770523e-03 
6.67500000000000e+00 1.24643345562409e-02 5.65061056809564e-03 
6.70500000000000e+00 1.23057426894573e-02 5.61501845671876e-03 
6.73500000000000e+00 1.21482432423487e-02 5.57938551140205e-03 
6.76500000000000e+00 1.19918354855029e-02 5.54373492432928e-03 
6.79500000000000e+00 1.18365183449774e-02 5.50808051655234e-03 
6.82500000000000e+00 1.16822892837995e-02 5.47243140133954e-03 
6.85500000000000e+00 1.15291445378029e-02 5.43678922231652e-03 
6.88500000000000e+00 1.13770825456568e-02 5.40115119699122e-03 
6.91500000000000e+00 1.12261018818936e-02 5.36551569364995e-03 
6.94500000000000e+00 1.10761524620101e-02 5.32988798113316e-03 
6.97500000000000e+00 1.09272336059794e-02 5.29426488650584e-03 
7.00500000000000e+00 1.07793445411866e-02 5.25862334660363e-03 
7.03500000000000e+00 1.06324543065639e-02 5.22290701469414e-03 
7.06500000000000e+00 1.04865513156384e-02 5.18707254992798e-03 
7.09500000000000e+00 1.03416391664476e-02 5.15103544706491e-03 
7.12500000000000e+00 1.01976718299274e-02 5.11449939633930e-03 
7.15500000000000e+00 1.00545636104879e-02 5.07712078263224e-03 
7.18500000000000e+00 9.91234445239469e-03 5.03878581555293e-03 
7.21500000000000e+00 9.77104307853075e-03 4.99954306949632e-03 
7.24500000000000e+00 9.63068657200810e-03 4.95943628115962e-03 
7.27500000000000e+00 9.49130149459456e-03 4.91849924403747e-03 
7.30500000000000e+00 9.35291357927401e-03 4.87676055015595e-03 
7.33500000000000e+00 9.21554820939015e-03 4.83424572913940e-03 
7.36500000000000e+00 9.07923004102728e-03 4.79098443409569e-03 
7.39500000000000e+00 8.94398261418290e-03 4.74703356485024e-03 
7.42500000000000e+00 8.80983569589884e-03 4.70250573698039e-03 
7.45500000000000e+00 8.67682287919479e-03 4.65752451226250e-03 
7.48500000000000e+00 8.54495808788220e-03 4.61215651801416e-03 
7.51500000000000e+00 8.41425450986868e-03 4.56642738293202e-03 
7.54500000000000e+00 8.28472477770937e-03 4.52036137427911e-03 
7.57500000000000e+00 8.15638075156066e-03 4.47398540986247e-03 
7.60500000000000e+00 8.02923352216868e-03 4.42732736082307e-03 
7.63500000000000e+00 7.90329345051501e-03 4.38041327855147e-03 
7.66500000000000e+00 7.77857015705389e-03 4.33326826671594e-03 
7.69500000000000e+00 7.65507261660204e-03 4.28591740378544e-03 
7.72500000000000e+00 7.53281702062171e-03 4.23838228288125e-03 
7.75500000000000e+00 7.41182656419961e-03 4.19067577999680e-03 
7.78500000000000e+00 7.29210818006865e-03 4.14281210997110e-03 
7.81500000000000e+00 7.17366842079565e-03 4.09481297470304e-03 
7.84500000000000e+00 7.05650477289444e-03 4.04670789416456e-03 
7.87500000000000e+00 6.94062227059137e-03 3.99851717192954e-03 
7.90500000000000e+00 6.82602559391838e-03 3.95025550802174e-03 
7.93500000000000e+00 6.71268512898595e-03 3.90194380941643e-03 
7.96500000000000e+00 6.60058897175528e-03 3.85359182367517e-03 
7.99500000000000e+00 6.48974190396952e-03 3.80524739221918e-03 
8.02500000000000e+00 6.38015924960829e-03 3.75704481376552e-03 
8.05500000000000e+00 6.27188849065605e-03 3.70908216694906e-03 
8.08500000000000e+00 6.16490433537755e-03 3.66137201288044e-03 
8.11500000000000e+00 6.05920266944200e-03 3.61390168747205e-03 
8.14500000000000e+00 5.95479868105512e-03 3.56668265541936e-03 
8.17500000000000e+00 5.85168642020527e-03 3.51973080367249e-03 
8.20500000000000e+00 5.74985743034156e-03 3.47305787460279e-03 
8.23500000000000e+00 5.64930127847251e-03 3.42667673888254e-03 
8.26500000000000e+00 5.55000939262406e-03 3.38059731504888e-03 
8.29500000000000e+00 5.45197509047179e-03 3.33482473410051e-03 
8.32500000000000e+00 5.35517725258959e-03 3.28936458167584e-03 
8.35500000000000e+00 5.25958102508328e-03 3.24422630121192e-03 
8.38500000000000e+00 5.16517924005270e-03 3.19941297932761e-03 
8.41500000000000e+00 5.07196562948659e-03 3.15489614707743e-03 
8.44500000000000e+00 4.97993805302845e-03 3.11061348100886e-03 
8.47500000000000e+00 4.88909372742472e-03 3.06654200020924e-03 
8.50500000000000e+00 4.79942950172174e-03 3.02267778567250e-03 
8.53500000000000e+00 4.71093040992177e-03 2.97899917056358e-03 
8.56500000000000e+00 4.62358268011622e-03 2.93549273960213e-03 
8.59500000000000e+00 4.53738495890630e-03 2.89215505200502e-03 
8.62500000000000e+00 4.45234571047335e-03 2.84896086197981e-03 
8.65500000000000e+00 4.36848354068750e-03 2.80587393467955e-03 
8.68500000000000e+00 4.28579856444085e-03 2.76289425843988e-03 
8.71500000000000e+00 4.20429040063296e-03 2.72003800688003e-03 
8.74500000000000e+00 4.12395820134707e-03 2.67732080606245e-03 
8.77500000000000e+00 4.04480064060593e-03 2.63475740027094e-03 
8.80500000000000e+00 3.96681593901865e-03 2.59236498022820e-03 
8.83500000000000e+00 3.89000153151053e-03 2.55016447480880e-03 
8.86500000000000e+00 3.81435430271662e-03 2.50817414027440e-03 
8.89500000000000e+00 3.73987073217085e-03 2.46640682711905e-03 
8.92500000000000e+00 3.66654548913438e-03 2.42487322578706e-03 
8.95500000000000e+00 3.59437159127975e-03 2.38358341673483e-03 
8.98500000000000e+00 3.52334469236765e-03 2.34254641221975e-03 
9.01500000000000e+00 3.45346011741567e-03 2.30180248390556e-03 
9.04500000000000e+00 3.38477670903803e-03 2.26138415394450e-03 
9.07500000000000e+00 3.31728431773549e-03 2.22132955164639e-03 
9.10500000000000e+00 3.25097263139260e-03 2.18164289651590e-03 
9.13500000000000e+00 3.18582593664719e-03 2.14233053305221e-03 
9.16500000000000e+00 3.12183122008896e-03 2.10339664441455e-03 
9.19500000000000e+00 3.05897800950128e-03 2.06485376379358e-03 
9.22500000000000e+00 2.99725272857003e-03 2.02674417412993e-03 
9.25500000000000e+00 2.93663864190077e-03 1.98911788820376e-03 
9.28500000000000e+00 2.87712176630050e-03 1.95199159153251e-03 
9.31500000000000e+00 2.81868820560809e-03 1.91536260552707e-03 
