Energy(eV)           EEDF(eV^-(3/2))      Anisotropy(eV^-(3/2))
8.68055555555556e-03 2.08184757203455e-01 -1.88203842477579e-03 
2.60416666666667e-02 2.08211427215203e-01 -8.20567594343972e-04 
4.34027777777778e-02 2.08234784382936e-01 -2.17824022018312e-04 
6.07638888888889e-02 2.08255340578907e-01 1.41196362555952e-04 
7.81250000000000e-02 2.08272840336488e-01 4.09399989132521e-04 
9.54861111111111e-02 2.08287103902475e-01 6.49214996131946e-04 
1.12847222222222e-01 2.08297914271611e-01 8.70903170074464e-04 
1.30208333333333e-01 2.08305102517155e-01 1.08571318953910e-03 
1.47569444444444e-01 2.08308328716173e-01 1.85360853460131e-03 
1.64930555555556e-01 2.08290711530526e-01 3.13154033815914e-03 
1.82291666666667e-01 2.08250222364925e-01 3.82672573122326e-03 
1.99652777777778e-01 2.08203647430109e-01 4.12780885321977e-03 
2.17013888888889e-01 2.08145866733935e-01 4.55987321647808e-03 
2.34375000000000e-01 2.08076946165135e-01 4.79644759294510e-03 
2.51736111111111e-01 2.08003407798973e-01 4.87327802218990e-03 
2.69097222222222e-01 2.07924345664480e-01 6.28129218698100e-03 
2.86458333333333e-01 2.07785687895385e-01 8.94485182411843e-03 
3.03819444444445e-01 2.07583846846706e-01 1.02825997308565e-02 
3.21180555555556e-01 2.07374196572949e-01 1.04483928874037e-02 
3.38541666666667e-01 2.07134931387042e-01 1.06619009572184e-02 
3.55902777777778e-01 2.06900479829772e-01 1.07203062524051e-02 
3.73263888888889e-01 2.06664162393981e-01 1.07018019758665e-02 
3.90625000000000e-01 2.06420828449617e-01 1.21632927598370e-02 
4.07986111111111e-01 2.06099511581380e-01 1.49462712279748e-02 
4.25347222222222e-01 2.05702860172614e-01 1.67554122273417e-02 
4.42708333333333e-01 2.05275729673505e-01 1.69663279369161e-02 
4.60069444444445e-01 2.04766190591713e-01 1.60775872805249e-02 
4.77430555555556e-01 2.04371248393458e-01 1.52378568255767e-02 
4.94791666666667e-01 2.03977327000118e-01 1.52289081271384e-02 
5.12152777777778e-01 2.03576249343202e-01 1.63363147078222e-02 
5.29513888888889e-01 2.03112785464310e-01 1.85795698961328e-02 
5.46875000000000e-01 2.02581075617277e-01 2.00800767944212e-02 
5.64236111111111e-01 2.02027053356959e-01 1.94795672788547e-02 
5.81597222222222e-01 2.01385646224696e-01 1.78207232660909e-02 
5.98958333333333e-01 2.00930553213862e-01 1.67440772360586e-02 
6.16319444444445e-01 2.00475317011965e-01 1.75127859383224e-02 
6.33680555555556e-01 1.99991028670841e-01 1.90853026174310e-02 
6.51041666666667e-01 1.99472287590827e-01 2.02518622400536e-02 
6.68402777777778e-01 1.98950161045954e-01 2.08264623861848e-02 
6.85763888888889e-01 1.98427376233756e-01 2.01840395875679e-02 
7.03125000000000e-01 1.97830742484745e-01 1.86399371106303e-02 
7.20486111111111e-01 1.97413588897646e-01 1.78164720440985e-02 
7.37847222222222e-01 1.96988296321119e-01 1.84312791501908e-02 
7.55208333333333e-01 1.96544661985872e-01 1.91246660987636e-02 
7.72569444444445e-01 1.96089300476220e-01 1.95847728029240e-02 
7.89930555555556e-01 1.95627279634388e-01 1.90861100827488e-02 
8.07291666666667e-01 1.95096253157566e-01 1.76729170815716e-02 
8.24652777777778e-01 1.94666113972100e-01 1.66330671617875e-02 
8.42013888888889e-01 1.94237658092980e-01 1.67267365066215e-02 
8.59375000000000e-01 1.93774514821414e-01 1.71900800864940e-02 
8.76736111111111e-01 1.93269658932139e-01 1.76962739506110e-02 
8.94097222222222e-01 1.92724748619369e-01 1.78645347141079e-02 
9.11458333333334e-01 1.92138271798063e-01 1.74109168551039e-02 
9.28819444444445e-01 1.91556396836130e-01 1.68134583123984e-02 
9.46180555555556e-01 1.91019518504233e-01 1.66906777569574e-02 
9.63541666666667e-01 1.90470036379304e-01 1.69342246638388e-02 
9.80902777777778e-01 1.89904384121349e-01 1.72467896843098e-02 
9.98263888888889e-01 1.89321025512410e-01 1.75207596953613e-02 
1.01562500000000e+00 1.88724235583061e-01 1.75602956817243e-02 
1.03298611111111e+00 1.88108378963008e-01 1.72828243279699e-02 
1.05034722222222e+00 1.87503397802369e-01 1.70225233912582e-02 
1.06770833333333e+00 1.86914657482166e-01 1.70809078367035e-02 
1.08506944444444e+00 1.86313076731793e-01 1.72957745367796e-02 
1.10243055555556e+00 1.85698784729650e-01 1.74879460304842e-02 
1.11979166666667e+00 1.85073054408884e-01 1.76521214583484e-02 
1.13715277777778e+00 1.84436442509568e-01 1.76802861771232e-02 
1.15451388888889e+00 1.83782140204668e-01 1.75862562623917e-02 
1.17187500000000e+00 1.83142277973523e-01 1.76297428701693e-02 
1.18923611111111e+00 1.82490452632691e-01 1.78114194351023e-02 
1.20659722222222e+00 1.81826473667639e-01 1.79816600226759e-02 
1.22395833333333e+00 1.81155581114494e-01 1.81158702716299e-02 
1.24131944444444e+00 1.80477390809795e-01 1.81854769736100e-02 
1.25868055555556e+00 1.79795260117962e-01 1.82359960290337e-02 
1.27604166666667e+00 1.79115444655608e-01 1.83509005718102e-02 
1.29340277777778e+00 1.78429324991779e-01 1.85072027164136e-02 
1.31076388888889e+00 1.77737268835086e-01 1.86581034868331e-02 
1.32812500000000e+00 1.77041630607923e-01 1.88057222541970e-02 
1.34548611111111e+00 1.76342392138339e-01 1.89309400179091e-02 
1.36284722222222e+00 1.75637842585390e-01 1.90344547060090e-02 
1.38020833333333e+00 1.74934861280260e-01 1.91660548634327e-02 
1.39756944444444e+00 1.74228030272625e-01 1.93231691952910e-02 
1.41493055555556e+00 1.73517405377138e-01 1.94785597183351e-02 
1.43229166666667e+00 1.72803151539472e-01 1.96290072153230e-02 
1.44965277777778e+00 1.72085367107266e-01 1.97665780615739e-02 
1.46701388888889e+00 1.71364025446507e-01 1.98940965629645e-02 
1.48437500000000e+00 1.70641286310869e-01 2.00267438059497e-02 
1.50173611111111e+00 1.69915633791183e-01 2.01627245620710e-02 
1.51909722222222e+00 1.69187241102780e-01 2.02954035240641e-02 
1.53645833333333e+00 1.68456226211112e-01 2.04230183315949e-02 
1.55381944444444e+00 1.67722446758921e-01 2.05437761177367e-02 
1.57118055555556e+00 1.66986720462643e-01 2.06633722461921e-02 
1.58854166666667e+00 1.66249152235240e-01 2.07858753515450e-02 
1.60590277777778e+00 1.65509360901275e-01 2.09084796916620e-02 
1.62326388888889e+00 1.64767450083892e-01 2.10289912607881e-02 
1.64062500000000e+00 1.64023494163053e-01 2.11454504310472e-02 
1.65798611111111e+00 1.63277451829268e-01 2.12578681969168e-02 
1.67534722222222e+00 1.62530009303257e-01 2.13702270603655e-02 
1.69270833333333e+00 1.61780899405055e-01 2.14829643446747e-02 
1.71006944444444e+00 1.61030191389535e-01 2.15939615926435e-02 
1.72743055555556e+00 1.60278664567379e-01 2.17027105758682e-02 
1.74479166666667e+00 1.59526434355348e-01 2.18091331189599e-02 
1.76215277777778e+00 1.58773613097902e-01 2.19132728420921e-02 
1.77951388888889e+00 1.58020310845938e-01 2.20151641909867e-02 
1.79687500000000e+00 1.57266635479321e-01 2.21147850650986e-02 
1.81423611111111e+00 1.56512697814533e-01 2.22119063943033e-02 
1.83159722222222e+00 1.55758622140674e-01 2.23062282391902e-02 
1.84895833333333e+00 1.55004535510180e-01 2.23976875483668e-02 
1.86631944444444e+00 1.54250561591809e-01 2.24863608726093e-02 
1.88368055555556e+00 1.53496820853536e-01 2.25723008179134e-02 
1.90104166666667e+00 1.52743430963127e-01 2.26555834705098e-02 
1.91840277777778e+00 1.51990077967791e-01 2.27362508326392e-02 
1.93576388888889e+00 1.51236533141290e-01 2.28143243113632e-02 
1.95312500000000e+00 1.50482900889941e-01 2.28898417862358e-02 
1.97048611111111e+00 1.49729281815048e-01 2.29627538432314e-02 
1.98784722222222e+00 1.48975766315996e-01 2.30329406229266e-02 
2.00520833333333e+00 1.48222462896708e-01 2.31003841823195e-02 
2.02256944444445e+00 1.47469478418705e-01 2.31651356366935e-02 
2.03993055555556e+00 1.46716916577416e-01 2.32272265694582e-02 
2.05729166666667e+00 1.45964878823264e-01 2.32866966286657e-02 
2.07465277777778e+00 1.45213464087831e-01 2.33435912864857e-02 
2.09201388888889e+00 1.44462769096661e-01 2.33979562193451e-02 
2.10937500000000e+00 1.43712853756399e-01 2.34498130758785e-02 
2.12673611111111e+00 1.42962985789847e-01 2.34990502810418e-02 
2.14409722222222e+00 1.42213259582997e-01 2.35456449042925e-02 
2.16145833333333e+00 1.41463767027895e-01 2.35896494170855e-02 
2.17881944444445e+00 1.40714597937631e-01 2.36311054644670e-02 
2.19618055555556e+00 1.39965840409091e-01 2.36700100673172e-02 
2.21354166666667e+00 1.39217531415349e-01 2.37062450860049e-02 
2.23090277777778e+00 1.38469631535332e-01 2.37396326503221e-02 
2.24826388888889e+00 1.37722241028806e-01 2.37700973174789e-02 
2.26562500000000e+00 1.36975457721081e-01 2.37976560350437e-02 
2.28298611111111e+00 1.36229377797388e-01 2.38223493756269e-02 
2.30034722222222e+00 1.35484095251290e-01 2.38442259804232e-02 
2.31770833333333e+00 1.34739745094748e-01 2.38633245483727e-02 
2.33506944444445e+00 1.33996457635902e-01 2.38796814983481e-02 
2.35243055555556e+00 1.33254321505882e-01 2.38933454643837e-02 
2.36979166666667e+00 1.32513423036893e-01 2.39043658949248e-02 
2.38715277777778e+00 1.31773846605724e-01 2.39127925808173e-02 
2.40451388888889e+00 1.31035674289558e-01 2.39186230775920e-02 
2.42187500000000e+00 1.30300430740931e-01 2.39218913971545e-02 
2.43923611111111e+00 1.29568650881937e-01 2.39226859520566e-02 
2.45659722222222e+00 1.28840411144811e-01 2.39210655446883e-02 
2.47395833333333e+00 1.28115785482811e-01 2.39170725710964e-02 
2.49131944444445e+00 1.27394845556373e-01 2.39107491698575e-02 
2.50868055555556e+00 1.26677660613268e-01 2.39022058242023e-02 
2.52604166666667e+00 1.25962198318455e-01 2.38914619566989e-02 
2.54340277777778e+00 1.25248527168002e-01 2.38784522434166e-02 
2.56076388888889e+00 1.24536713906329e-01 2.38632205152158e-02 
2.57812500000000e+00 1.23826823533444e-01 2.38458105249385e-02 
2.59548611111111e+00 1.23118919295410e-01 2.38262749257784e-02 
2.61284722222222e+00 1.22413124036726e-01 2.38046666716301e-02 
2.63020833333333e+00 1.21709692537828e-01 2.37810398906498e-02 
2.64756944444445e+00 1.21008681165559e-01 2.37554513349543e-02 
2.66493055555556e+00 1.20310144603882e-01 2.37279406485017e-02 
2.68229166666667e+00 1.19614135995182e-01 2.36985451409137e-02 
2.69965277777778e+00 1.18920706961086e-01 2.36673161324658e-02 
2.71701388888889e+00 1.18229907460866e-01 2.36343345695487e-02 
2.73437500000000e+00 1.17541784259095e-01 2.35996837977819e-02 
2.75173611111111e+00 1.16856380923545e-01 2.35634161122708e-02 
2.76909722222222e+00 1.16173739654915e-01 2.35255635289144e-02 
2.78645833333333e+00 1.15493901439346e-01 2.34861504754721e-02 
2.80381944444445e+00 1.14816906375487e-01 2.34452025143631e-02 
2.82118055555556e+00 1.14142146454128e-01 2.34027439269547e-02 
2.83854166666667e+00 1.13469413356447e-01 2.33587189925746e-02 
2.85590277777778e+00 1.12798753331191e-01 2.33130640141428e-02 
2.87326388888889e+00 1.12130211575880e-01 2.32657751414948e-02 
2.89062500000000e+00 1.11463832104963e-01 2.32168838363735e-02 
2.90798611111111e+00 1.10799657952901e-01 2.31664276781477e-02 
2.92534722222222e+00 1.10137762926473e-01 2.31144574686615e-02 
2.94270833333333e+00 1.09478187908170e-01 2.30610184656449e-02 
2.96006944444445e+00 1.08820971353203e-01 2.30061405843229e-02 
2.97743055555556e+00 1.08166150746459e-01 2.29498507999596e-02 
2.99479166666667e+00 1.07513762658481e-01 2.28921859595085e-02 
3.01215277777778e+00 1.06863826807235e-01 2.28332047150365e-02 
3.02951388888889e+00 1.06216315054049e-01 2.27729985130146e-02 
3.04687500000000e+00 1.05571252994053e-01 2.27116947096740e-02 
3.06423611111111e+00 1.04928665644357e-01 2.26494005725703e-02 
3.08159722222222e+00 1.04288576657190e-01 2.25861559834233e-02 
3.09895833333333e+00 1.03651009209834e-01 2.25219798729281e-02 
3.11631944444445e+00 1.03015974342189e-01 2.24568999381739e-02 
3.13368055555556e+00 1.02383479150774e-01 2.23909450346838e-02 
3.15104166666667e+00 1.01753544344595e-01 2.23241392518885e-02 
3.16840277777778e+00 1.01126189909070e-01 2.22565045162926e-02 
3.18576388888889e+00 1.00501435132158e-01 2.21880665042898e-02 
3.20312500000000e+00 9.98792983533982e-02 2.21188649959209e-02 
3.22048611111111e+00 9.92604462368680e-02 2.20489310529527e-02 
3.23784722222222e+00 9.86451957211006e-02 2.19782907687419e-02 
3.25520833333333e+00 9.80335600977488e-02 2.19068871550387e-02 
3.27256944444445e+00 9.74255516713583e-02 2.18346900011249e-02 
3.28993055555556e+00 9.68211819945686e-02 2.17617167390854e-02 
3.30729166666667e+00 9.62204620418454e-02 2.16880131793634e-02 
3.32465277777778e+00 9.56219946064880e-02 2.16136979788142e-02 
3.34201388888889e+00 9.50256760372178e-02 2.15387020699826e-02 
3.35937500000000e+00 9.44315248219935e-02 2.14630370264067e-02 
3.37673611111111e+00 9.38395588892210e-02 2.13867221329424e-02 
3.39409722222222e+00 9.32497956383608e-02 2.13097732752314e-02 
3.41145833333333e+00 9.26622496830896e-02 2.12322083617804e-02 
3.42881944444445e+00 9.20769248052022e-02 2.11540807197264e-02 
3.44618055555556e+00 9.14938326308102e-02 2.10754724077559e-02 
3.46354166666667e+00 9.09129845226179e-02 2.09964457409711e-02 
3.48090277777778e+00 9.03343911587104e-02 2.09170272055203e-02 
3.49826388888889e+00 8.97580629224352e-02 2.08372267023532e-02 
3.51562500000000e+00 8.91840006499879e-02 2.07570533770954e-02 
3.53298611111111e+00 8.86122004305708e-02 2.06765163240744e-02 
3.55034722222222e+00 8.80426720568926e-02 2.05956257343806e-02 
3.56770833333333e+00 8.74754249609443e-02 2.05143940303554e-02 
3.58506944444445e+00 8.69104682291334e-02 2.04328364467946e-02 
3.60243055555556e+00 8.63478104132047e-02 2.03509798663683e-02 
3.61979166666667e+00 8.57874291516652e-02 2.02688558499712e-02 
3.63715277777778e+00 8.52293157338956e-02 2.01864827381236e-02 
3.65451388888889e+00 8.46734789799227e-02 2.01038957319567e-02 
3.67187500000000e+00 8.41199241120155e-02 2.00211492017440e-02 
3.68923611111111e+00 8.35686549413382e-02 1.99382704893067e-02 
3.70659722222222e+00 8.30196751664138e-02 1.98552655474727e-02 
3.72395833333333e+00 8.24726370886757e-02 1.97721698168444e-02 
3.74131944444445e+00 8.19274990686229e-02 1.96889572627246e-02 
3.75868055555556e+00 8.13842681097166e-02 1.96056024472698e-02 
3.77604166666667e+00 8.08429519021336e-02 1.95220953192926e-02 
3.79340277777778e+00 8.03035580318947e-02 1.94384497649788e-02 
3.81076388888889e+00 7.97660952227453e-02 1.93547392498254e-02 
3.82812500000000e+00 7.92305800292860e-02 1.92711289920793e-02 
3.84548611111111e+00 7.86970077675688e-02 1.91878387881685e-02 
3.86284722222222e+00 7.81653689215259e-02 1.91050325168011e-02 
3.88020833333333e+00 7.76356517038874e-02 1.90227575219455e-02 
3.89756944444445e+00 7.71078444265725e-02 1.89410092741894e-02 
3.91493055555556e+00 7.65819390501510e-02 1.88597891499679e-02 
3.93229166666667e+00 7.60579299932189e-02 1.87791159062012e-02 
3.94965277777778e+00 7.55358044482432e-02 1.86990440425549e-02 
3.96701388888889e+00 7.50155473743526e-02 1.86196430129452e-02 
3.98437500000000e+00 7.44971419692815e-02 1.85409378765336e-02 
4.00173611111111e+00 7.39805717084125e-02 1.84628123914203e-02 
4.01909722222222e+00 7.34660067565798e-02 1.83849768061453e-02 
4.03645833333333e+00 7.29535651934754e-02 1.83072826667765e-02 
4.05381944444445e+00 7.24432446892420e-02 1.82298638550691e-02 
4.07118055555556e+00 7.19350346962373e-02 1.81528699149127e-02 
4.08854166666667e+00 7.14289225576115e-02 1.80763351149975e-02 
4.10590277777778e+00 7.09248957781883e-02 1.80002848788288e-02 
4.12326388888889e+00 7.04223418087936e-02 1.79248061857443e-02 
4.14062500000000e+00 6.99211371188230e-02 1.78498136256595e-02 
4.15798611111111e+00 6.94212762684800e-02 1.77751612602574e-02 
4.17534722222222e+00 6.89227579043784e-02 1.77007573758939e-02 
4.19270833333333e+00 6.84255793102750e-02 1.76265529916491e-02 
4.21006944444445e+00 6.79297886772305e-02 1.75524897833725e-02 
4.22743055555556e+00 6.74360155284712e-02 1.74785330344325e-02 
4.24479166666667e+00 6.69442543228959e-02 1.74047827455594e-02 
4.26215277777778e+00 6.64544988380947e-02 1.73312598004166e-02 
4.27951388888889e+00 6.59667432513339e-02 1.72579616470839e-02 
4.29687500000000e+00 6.54809817849480e-02 1.71848763900898e-02 
4.31423611111111e+00 6.49972166200003e-02 1.71119635477143e-02 
4.33159722222222e+00 6.45154596919117e-02 1.70392153248886e-02 
4.34895833333333e+00 6.40357060693714e-02 1.69667318215627e-02 
4.36631944444445e+00 6.35579463913757e-02 1.68946284406148e-02 
4.38368055555556e+00 6.30821691242145e-02 1.68229406281353e-02 
4.40104166666667e+00 6.26083628743715e-02 1.67515904318471e-02 
4.41840277777778e+00 6.21364909896951e-02 1.66803838634954e-02 
4.43576388888889e+00 6.16665302414535e-02 1.66092042422810e-02 
4.45312500000000e+00 6.11984801188329e-02 1.65380978086474e-02 
4.47048611111111e+00 6.07323381490633e-02 1.64671013551790e-02 
4.48784722222222e+00 6.02681022356726e-02 1.63962088989640e-02 
4.50520833333333e+00 5.98057702447318e-02 1.63254396232384e-02 
4.52256944444445e+00 5.93452664324123e-02 1.62548512880369e-02 
4.53993055555556e+00 5.88865683276734e-02 1.61845418911698e-02 
4.55729166666667e+00 5.84296677675498e-02 1.61146366722260e-02 
4.57465277777778e+00 5.79745531148758e-02 1.60451983611146e-02 
4.59201388888889e+00 5.75212124676265e-02 1.59762273642180e-02 
4.60937500000000e+00 5.70696342171495e-02 1.59076882388765e-02 
4.62673611111111e+00 5.66198104449977e-02 1.58395027974904e-02 
4.64409722222222e+00 5.61717352711489e-02 1.57714945894573e-02 
4.66145833333333e+00 5.57254094194232e-02 1.57034257953788e-02 
4.67881944444445e+00 5.52808392619793e-02 1.56351925502789e-02 
4.69618055555556e+00 5.48380309529994e-02 1.55667794768330e-02 
4.71354166666667e+00 5.43969825525034e-02 1.54980839443844e-02 
4.73090277777778e+00 5.39576826641939e-02 1.54289567091131e-02 
4.74826388888889e+00 5.35201477082392e-02 1.53593196628869e-02 
4.76562500000000e+00 5.30843945027185e-02 1.52891609582068e-02 
4.78298611111111e+00 5.26504399897943e-02 1.52184875130173e-02 
4.80034722222222e+00 5.22183006125765e-02 1.51473078753625e-02 
4.81770833333333e+00 5.17880125009590e-02 1.50756256118568e-02 
4.83506944444445e+00 5.13596095900162e-02 1.50034708962121e-02 
4.85243055555556e+00 5.09331058353253e-02 1.49308943958185e-02 
4.86979166666667e+00 5.05085142793481e-02 1.48579344021430e-02 
4.88715277777778e+00 5.00858471878926e-02 1.47846106995266e-02 
4.90451388888889e+00 4.96651164927008e-02 1.47109177708830e-02 
4.92187500000000e+00 4.92463633932174e-02 1.46368433498105e-02 
4.93923611111111e+00 4.88296091052903e-02 1.45624178725823e-02 
4.95659722222222e+00 4.84148642175593e-02 1.44876824464995e-02 
4.97395833333333e+00 4.80021385584826e-02 1.44126530359833e-02 
4.99131944444445e+00 4.75914418045973e-02 1.43373390919712e-02 
5.00868055555556e+00 4.71827832488619e-02 1.42618366403266e-02 
5.02604166666667e+00 4.67757129704538e-02 1.41863328971159e-02 
5.04340277777778e+00 4.63702365723763e-02 1.41108015780673e-02 
5.06076388888889e+00 4.59663621286810e-02 1.40351822677413e-02 
5.07812500000000e+00 4.55640987591974e-02 1.39594618657737e-02 
5.09548611111111e+00 4.51634553290402e-02 1.38836477018276e-02 
5.11284722222222e+00 4.47645158566381e-02 1.38077389275296e-02 
5.13020833333333e+00 4.43675251941554e-02 1.37317477631505e-02 
5.14756944444445e+00 4.39724870871501e-02 1.36557539721148e-02 
5.16493055555556e+00 4.35794032983015e-02 1.35798056556430e-02 
5.18229166666667e+00 4.31882747656409e-02 1.35039199492985e-02 
5.19965277777778e+00 4.27991022388632e-02 1.34281128363115e-02 
5.21701388888889e+00 4.24118352823802e-02 1.33524359514384e-02 
5.23437500000000e+00 4.20264181408245e-02 1.32769452754270e-02 
5.25173611111111e+00 4.16428487160552e-02 1.32016546879161e-02 
5.26909722222222e+00 4.12611250490880e-02 1.31265603927222e-02 
5.28645833333333e+00 4.08812452371898e-02 1.30516617716618e-02 
5.30381944444445e+00 4.05032073345285e-02 1.29769531017777e-02 
5.32118055555556e+00 4.01268622032854e-02 1.29024417367955e-02 
5.33854166666667e+00 3.97521528971445e-02 1.28281180158844e-02 
5.35590277777778e+00 3.93790801694123e-02 1.27539686428352e-02 
5.37326388888889e+00 3.90076451898765e-02 1.26799852229920e-02 
5.39062500000000e+00 3.86378491621317e-02 1.26061694940168e-02 
