Energy(eV)           EEDF(eV^-(3/2))      Anisotropy(eV^-(3/2))
1.04166666666667e-02 6.34617612499995e-01 5.61179707540004e-03 
3.12500000000000e-02 6.34385807197824e-01 7.33961654443032e-03 
5.20833333333333e-02 6.33571044320994e-01 1.92577295547047e-02 
7.29166666666667e-02 6.32267933296879e-01 3.00255462515654e-02 
9.37500000000000e-02 6.30714524206444e-01 3.72286113841733e-02 
1.14583333333333e-01 6.29048949889226e-01 4.16492532662398e-02 
1.35416666666667e-01 6.27348191528897e-01 4.45559374206006e-02 
1.56250000000000e-01 6.25584986155886e-01 4.67984492168207e-02 
1.77083333333333e-01 6.23836647159300e-01 4.83198469606990e-02 
1.97916666666667e-01 6.22111381188907e-01 4.93016982174647e-02 
2.18750000000000e-01 6.20396484609686e-01 5.01033413483172e-02 
2.39583333333333e-01 6.18673777595977e-01 5.07956138208629e-02 
2.60416666666667e-01 6.16946029950713e-01 5.17860828846359e-02 
2.81250000000000e-01 6.15215126471109e-01 5.30108027632706e-02 
3.02083333333333e-01 6.13489579975709e-01 5.34588485431641e-02 
3.22916666666667e-01 6.11786632856870e-01 5.27111258210116e-02 
3.43750000000000e-01 6.10117653333888e-01 5.12349505049393e-02 
3.64583333333333e-01 6.08514907345740e-01 4.98566401165091e-02 
3.85416666666667e-01 6.06939155739952e-01 4.91095708023815e-02 
4.06250000000000e-01 6.05370189512687e-01 4.86074617103779e-02 
4.27083333333333e-01 6.03810975893663e-01 4.79851001963064e-02 
4.47916666666667e-01 6.02264698463315e-01 4.71463058310313e-02 
4.68750000000000e-01 6.00719127730589e-01 4.61841163778369e-02 
4.89583333333333e-01 5.99218191515811e-01 4.60272563287892e-02 
5.10416666666667e-01 5.97686188590417e-01 4.67957663667695e-02 
5.31250000000000e-01 5.96124383654446e-01 4.74808743384606e-02 
5.52083333333333e-01 5.94546252423460e-01 4.78719132670137e-02 
5.72916666666667e-01 5.92941839986944e-01 4.80012151163788e-02 
5.93750000000000e-01 5.91333210787749e-01 4.82709034822736e-02 
6.14583333333333e-01 5.89724372582747e-01 4.93004427330482e-02 
6.35416666666667e-01 5.88072562512070e-01 5.08258481835917e-02 
6.56250000000000e-01 5.86373630266819e-01 5.24659751296806e-02 
6.77083333333333e-01 5.84624662932508e-01 5.38718439491259e-02 
6.97916666666667e-01 5.82793051295407e-01 5.50182707804860e-02 
7.18750000000000e-01 5.80968715728286e-01 5.69311329833055e-02 
7.39583333333333e-01 5.79059103399491e-01 5.97027149560812e-02 
7.60416666666667e-01 5.77046094468871e-01 6.27158462298127e-02 
7.81250000000000e-01 5.74924480517000e-01 6.58891774825753e-02 
8.02083333333333e-01 5.72677024484803e-01 6.91104664449183e-02 
8.22916666666667e-01 5.70290375252003e-01 7.25200589359773e-02 
8.43750000000000e-01 5.67777746969349e-01 7.65512865413089e-02 
8.64583333333333e-01 5.65086847820448e-01 8.11048055116591e-02 
8.85416666666667e-01 5.62201954038534e-01 8.59686778793022e-02 
9.06250000000000e-01 5.59110040591519e-01 9.09472291143467e-02 
9.27083333333333e-01 5.55782491493113e-01 9.60300483619362e-02 
9.47916666666667e-01 5.52289984471274e-01 1.01703261054016e-01 
9.68750000000000e-01 5.48563001280823e-01 1.07885924176829e-01 
9.89583333333333e-01 5.44587586339950e-01 1.14341331859039e-01 
1.01041666666667e+00 5.40352400214387e-01 1.21026868454592e-01 
1.03125000000000e+00 5.35779825627766e-01 1.27788176777340e-01 
1.05208333333333e+00 5.30849795579968e-01 1.34610161272113e-01 
1.07291666666667e+00 5.25581114602781e-01 1.41606209256529e-01 
1.09375000000000e+00 5.19934002440768e-01 1.48668016588147e-01 
1.11458333333333e+00 5.13898849065742e-01 1.55694007568719e-01 
1.13541666666667e+00 5.07473617193220e-01 1.62618056927846e-01 
1.15625000000000e+00 5.00630484242445e-01 1.69391455709929e-01 
1.17708333333333e+00 4.93405066112822e-01 1.76098933975250e-01 
1.19791666666667e+00 4.85762550737812e-01 1.82646773141702e-01 
1.21875000000000e+00 4.77664106591887e-01 1.88899630488243e-01 
1.23958333333333e+00 4.69054367388169e-01 1.94730080187850e-01 
1.26041666666667e+00 4.59921133348034e-01 2.00016631485489e-01 
1.28125000000000e+00 4.50286657786073e-01 2.04650738457255e-01 
1.30208333333333e+00 4.40155224846825e-01 2.08499740853478e-01 
1.32291666666667e+00 4.29515747143899e-01 2.11424255049215e-01 
1.34375000000000e+00 4.18379507381076e-01 2.13303864674647e-01 
1.36458333333333e+00 4.06776040319345e-01 2.14073901611644e-01 
1.38541666666667e+00 3.94759826420230e-01 2.13720863639851e-01 
1.40625000000000e+00 3.82369076034965e-01 2.12248494362853e-01 
1.42708333333333e+00 3.69664228195736e-01 2.09697334602771e-01 
1.44791666666667e+00 3.56699689289107e-01 2.06146682291207e-01 
1.46875000000000e+00 3.43545265813602e-01 2.01720575332692e-01 
1.48958333333333e+00 3.30267397985707e-01 1.96578642145253e-01 
1.51041666666667e+00 3.16932305147328e-01 1.90900060086274e-01 
1.53125000000000e+00 3.03738002330269e-01 1.84832248484939e-01 
1.55208333333333e+00 2.90736821926649e-01 1.78557611784811e-01 
1.57291666666667e+00 2.77976216721064e-01 1.72215373866698e-01 
1.59375000000000e+00 2.65500505145649e-01 1.65928104582352e-01 
1.61458333333333e+00 2.53357512626449e-01 1.59772665512041e-01 
1.63541666666667e+00 2.41620719762015e-01 1.53767612629257e-01 
1.65625000000000e+00 2.30300637332586e-01 1.47931061587391e-01 
1.67708333333333e+00 2.19388143437386e-01 1.42244822929242e-01 
1.69791666666667e+00 2.08877725513725e-01 1.36679256014982e-01 
1.71875000000000e+00 1.98797080854277e-01 1.31192848849765e-01 
1.73958333333333e+00 1.89176796152008e-01 1.25734507344945e-01 
1.76041666666667e+00 1.80009068407615e-01 1.20285931373967e-01 
1.78125000000000e+00 1.71278188460769e-01 1.14843018847312e-01 
1.80208333333333e+00 1.62974395678762e-01 1.09418696464471e-01 
1.82291666666667e+00 1.55090731326077e-01 1.04060910749613e-01 
1.84375000000000e+00 1.47619664805872e-01 9.88323987789512e-02 
1.86458333333333e+00 1.40554720280757e-01 9.37989814531119e-02 
1.88541666666667e+00 1.33883830785517e-01 8.90243158297549e-02 
1.90625000000000e+00 1.27594197706679e-01 8.45545024544006e-02 
1.92708333333333e+00 1.21715944103275e-01 8.03939977570115e-02 
1.94791666666667e+00 1.16244944003275e-01 7.65384505399769e-02 
1.96875000000000e+00 1.11151227408770e-01 7.29557894309812e-02 
1.98958333333333e+00 1.06412808146555e-01 6.96069044580349e-02 
2.01041666666667e+00 1.02010375240907e-01 6.64522560724912e-02 
2.03125000000000e+00 9.79148464961312e-02 6.34628415138168e-02 
2.05208333333333e+00 9.41140437666898e-02 6.06125343019067e-02 
2.07291666666667e+00 9.05740882582530e-02 5.78905806906884e-02 
2.09375000000000e+00 8.72792017828672e-02 5.52888617253562e-02 
2.11458333333333e+00 8.42001903115709e-02 5.28028964896018e-02 
2.13541666666667e+00 8.12869841858511e-02 5.04364546277271e-02 
2.15625000000000e+00 7.85341896927377e-02 4.81747179105377e-02 
2.17708333333333e+00 7.59284872043403e-02 4.60147277682026e-02 
2.19791666666667e+00 7.34707724448149e-02 4.39531480532449e-02 
2.21875000000000e+00 7.11522563044465e-02 4.19948503579006e-02 
2.23958333333333e+00 6.89656368324859e-02 4.01403452780055e-02 
2.26041666666667e+00 6.69081796486065e-02 3.83902045867850e-02 
2.28125000000000e+00 6.49720672997457e-02 3.67484831463700e-02 
2.30208333333333e+00 6.31519882992591e-02 3.52125661904128e-02 
2.32291666666667e+00 6.14338060538701e-02 3.37748326005087e-02 
2.34375000000000e+00 5.98084587391370e-02 3.24193013040705e-02 
2.36458333333333e+00 5.82641111924170e-02 3.11371501218164e-02 
2.38541666666667e+00 5.67953746645114e-02 2.99179540378180e-02 
2.40625000000000e+00 5.53957384198995e-02 2.87557991738516e-02 
2.42708333333333e+00 5.40639584182752e-02 2.76450452187083e-02 
2.44791666666667e+00 5.27979354586715e-02 2.65844140520829e-02 
2.46875000000000e+00 5.15973703370014e-02 2.55768972433674e-02 
2.48958333333333e+00 5.04616916158834e-02 2.46280236036960e-02 
2.51041666666667e+00 4.93878097916922e-02 2.37389981483175e-02 
2.53125000000000e+00 4.83656589935687e-02 2.29089920205060e-02 
2.55208333333333e+00 4.73895710038897e-02 2.21326320837776e-02 
2.57291666666667e+00 4.64561151844887e-02 2.14038538562434e-02 
2.59375000000000e+00 4.55592507595178e-02 2.07154076304977e-02 
2.61458333333333e+00 4.46966157067119e-02 2.00566802114536e-02 
2.63541666666667e+00 4.38645201025339e-02 1.94212026703350e-02 
2.65625000000000e+00 4.30632107882169e-02 1.88056334485155e-02 
2.67708333333333e+00 4.22920121711587e-02 1.82114541081731e-02 
2.69791666666667e+00 4.15510220620651e-02 1.76429952254308e-02 
2.71875000000000e+00 4.08408850096350e-02 1.71037254707171e-02 
2.73958333333333e+00 4.01588082574206e-02 1.65970235016682e-02 
2.76041666666667e+00 3.95050675438530e-02 1.61229634955645e-02 
2.78125000000000e+00 3.88753848411511e-02 1.56802345347961e-02 
2.80208333333333e+00 3.82685905934347e-02 1.52628849324566e-02 
2.82291666666667e+00 3.76805611844042e-02 1.48655042657754e-02 
2.84375000000000e+00 3.71094853626879e-02 1.44829576009597e-02 
2.86458333333333e+00 3.65550281941396e-02 1.41127326808975e-02 
2.88541666666667e+00 3.60161848813223e-02 1.37548026070743e-02 
2.90625000000000e+00 3.54936664908278e-02 1.34103484495555e-02 
2.92708333333333e+00 3.49866326300970e-02 1.30818517680653e-02 
2.94791666666667e+00 3.44952590230533e-02 1.27709852515584e-02 
2.96875000000000e+00 3.40183628487127e-02 1.24788302246809e-02 
2.98958333333333e+00 3.35551368530300e-02 1.22045192447398e-02 
3.01041666666667e+00 3.31041050791596e-02 1.19455443317661e-02 
3.03125000000000e+00 3.26641247435217e-02 1.16985330036701e-02 
3.05208333333333e+00 3.22345947788488e-02 1.14608079657657e-02 
3.07291666666667e+00 3.18147112473594e-02 1.12306579463183e-02 
3.09375000000000e+00 3.14044715901672e-02 1.10070266435184e-02 
3.11458333333333e+00 3.10035441269555e-02 1.07896808969310e-02 
3.13541666666667e+00 3.06120928644708e-02 1.05797840113548e-02 
3.15625000000000e+00 3.02297854249581e-02 1.03792653168974e-02 
3.17708333333333e+00 2.98563132167771e-02 1.01887820985946e-02 
3.19791666666667e+00 2.94911598921760e-02 1.00079315826810e-02 
3.21875000000000e+00 2.91336553980060e-02 9.83567494577574e-03 
3.23958333333333e+00 2.87834590729312e-02 9.67016306922125e-03 
3.26041666666667e+00 2.84399756651012e-02 9.50925618096935e-03 
3.28125000000000e+00 2.81031150508986e-02 9.35163157299957e-03 
3.30208333333333e+00 2.77726114809044e-02 9.19692318632733e-03 
3.32291666666667e+00 2.74483806776330e-02 9.04519831394857e-03 
3.34375000000000e+00 2.71303587894004e-02 8.89675966287578e-03 
3.36458333333333e+00 2.68183942450265e-02 8.75178979478147e-03 
3.38541666666667e+00 2.65124157365102e-02 8.61029147372631e-03 
3.40625000000000e+00 2.62121397819336e-02 8.47211605852928e-03 
3.42708333333333e+00 2.59173904184147e-02 8.33709038636074e-03 
3.44791666666667e+00 2.56278973113669e-02 8.20479426635780e-03 
3.46875000000000e+00 2.53434836156549e-02 8.07464622382959e-03 
3.48958333333333e+00 2.50640630733836e-02 7.94633156597923e-03 
3.51041666666667e+00 2.47895225808396e-02 7.81978217255215e-03 
3.53125000000000e+00 2.45198500543469e-02 7.69511822154443e-03 
3.55208333333333e+00 2.42549705069341e-02 7.57244868752575e-03 
3.57291666666667e+00 2.39947999958866e-02 7.45229357946781e-03 
3.59375000000000e+00 2.37393471083409e-02 7.33586021292747e-03 
3.61458333333333e+00 2.34885338020393e-02 7.22412119731157e-03 
3.63541666666667e+00 2.32421750791222e-02 7.11677437690387e-03 
3.65625000000000e+00 2.30001157441241e-02 7.01264209471444e-03 
3.67708333333333e+00 2.27623240273183e-02 6.91098645512593e-03 
3.69791666666667e+00 2.25286747702547e-02 6.81169700088110e-03 
3.71875000000000e+00 2.22990843897835e-02 6.71487720341273e-03 
3.73958333333333e+00 2.20734396682722e-02 6.62056937121789e-03 
3.76041666666667e+00 2.18516282431174e-02 6.52848713810161e-03 
3.78125000000000e+00 2.16335765936428e-02 6.43836588468054e-03 
3.80208333333333e+00 2.14191710625986e-02 6.35013017478445e-03 
3.82291666666667e+00 2.12083083318272e-02 6.26374051288313e-03 
3.84375000000000e+00 2.10008880760662e-02 6.17908418303184e-03 
3.86458333333333e+00 2.07968196385328e-02 6.09600661513341e-03 
3.88541666666667e+00 2.05960400072686e-02 6.01439593442274e-03 
3.90625000000000e+00 2.03984359350718e-02 5.93433434005189e-03 
3.92708333333333e+00 2.02039954181476e-02 5.85610335088850e-03 
3.94791666666667e+00 2.00126487451159e-02 5.77993593978448e-03 
3.96875000000000e+00 1.98243093941076e-02 5.70586953427621e-03 
3.98958333333333e+00 1.96389898370763e-02 5.63382426567362e-03 
4.01041666666667e+00 1.94566195826170e-02 5.56375075804653e-03 
4.03125000000000e+00 1.92768290386375e-02 5.49571708577920e-03 
4.05208333333333e+00 1.90995294706839e-02 5.42963959183845e-03 
4.07291666666667e+00 1.89247064529231e-02 5.36542402383608e-03 
4.09375000000000e+00 1.87523307793143e-02 5.30303756197558e-03 
4.11458333333333e+00 1.85823193510319e-02 5.24245274365521e-03 
4.13541666666667e+00 1.84145642252604e-02 5.18358467292673e-03 
4.15625000000000e+00 1.82490055299680e-02 5.12631132962550e-03 
4.17708333333333e+00 1.80855841286914e-02 5.07055132604746e-03 
4.19791666666667e+00 1.79242396606435e-02 5.01629039429225e-03 
4.21875000000000e+00 1.77649314892232e-02 4.96354755046074e-03 
4.23958333333333e+00 1.76076282695800e-02 4.91232351075100e-03 
4.26041666666667e+00 1.74522611405578e-02 4.86262617648994e-03 
4.28125000000000e+00 1.72987714636592e-02 4.81447896063349e-03 
4.30208333333333e+00 1.71471008850852e-02 4.76787430507780e-03 
4.32291666666667e+00 1.69971943548529e-02 4.72277330496393e-03 
4.34375000000000e+00 1.68489985947533e-02 4.67911463685731e-03 
4.36458333333333e+00 1.67024624837549e-02 4.63680563940897e-03 
4.38541666666667e+00 1.65575372844284e-02 4.59577819212264e-03 
4.40625000000000e+00 1.64141751825677e-02 4.55597965321207e-03 
4.42708333333333e+00 1.62723235751367e-02 4.51734741002498e-03 
4.44791666666667e+00 1.61319840174401e-02 4.47982300603253e-03 
4.46875000000000e+00 1.59931262720519e-02 4.44337568345770e-03 
4.48958333333333e+00 1.58557103383763e-02 4.40798029107138e-03 
4.51041666666667e+00 1.57196975362203e-02 4.37349133623590e-03 
4.53125000000000e+00 1.55850303416852e-02 4.33966796184792e-03 
4.55208333333333e+00 1.54518478526693e-02 4.30639219740501e-03 
4.57291666666667e+00 1.53201237395134e-02 4.27371296274480e-03 
4.59375000000000e+00 1.51898311629744e-02 4.24162776347520e-03 
4.61458333333333e+00 1.50609423126503e-02 4.21008704258209e-03 
4.63541666666667e+00 1.49334289582711e-02 4.17902216495225e-03 
4.65625000000000e+00 1.48072756662285e-02 4.14838550498305e-03 
4.67708333333333e+00 1.46824624054627e-02 4.11815859808598e-03 
4.69791666666667e+00 1.45589699157330e-02 4.08832843207855e-03 
4.71875000000000e+00 1.44367780772686e-02 4.05888211429950e-03 
4.73958333333333e+00 1.43158666082107e-02 4.02992922578884e-03 
4.76041666666667e+00 1.41962107044189e-02 4.00172120684820e-03 
4.78125000000000e+00 1.40777778029336e-02 3.97440626681972e-03 
4.80208333333333e+00 1.39605344809626e-02 3.94798798542773e-03 
4.82291666666667e+00 1.38444505560076e-02 3.92246521110146e-03 
4.84375000000000e+00 1.37295008006546e-02 3.89785087910716e-03 
4.86458333333333e+00 1.36156611767449e-02 3.87413987516950e-03 
4.88541666666667e+00 1.35028997716139e-02 3.85131299317637e-03 
4.90625000000000e+00 1.33911857624170e-02 3.82925819104866e-03 
4.92708333333333e+00 1.32804624802445e-02 3.80775812177930e-03 
4.94791666666667e+00 1.31707057273631e-02 3.78666649792562e-03 
4.96875000000000e+00 1.30619025641745e-02 3.76595268250403e-03 
4.98958333333333e+00 1.29540379749595e-02 3.74560844512758e-03 
5.01041666666667e+00 1.28470969571003e-02 3.72562780080936e-03 
5.03125000000000e+00 1.27409876854743e-02 3.70603513041881e-03 
5.05208333333333e+00 1.26356939270181e-02 3.68692292025053e-03 
5.07291666666667e+00 1.25311860081641e-02 3.66839181929533e-03 
5.09375000000000e+00 1.24274282797527e-02 3.65040015028487e-03 
5.11458333333333e+00 1.23244006685966e-02 3.63280135468854e-03 
5.13541666666667e+00 1.22220762625792e-02 3.61544867493175e-03 
5.15625000000000e+00 1.21204475953949e-02 3.59827735814934e-03 
5.17708333333333e+00 1.20195233252799e-02 3.58128444660999e-03 
5.19791666666667e+00 1.19193031367109e-02 3.56446166947544e-03 
5.21875000000000e+00 1.18197759233766e-02 3.54779033287958e-03 
5.23958333333333e+00 1.17209295153673e-02 3.53125212355227e-03 
5.26041666666667e+00 1.16227580024228e-02 3.51483849556160e-03 
5.28125000000000e+00 1.15252559413443e-02 3.49854648840899e-03 
5.30208333333333e+00 1.14284193481198e-02 3.48237392293574e-03 
5.32291666666667e+00 1.13322370878439e-02 3.46631937487987e-03 
5.34375000000000e+00 1.12366999752221e-02 3.45038056950520e-03 
5.36458333333333e+00 1.11418027012158e-02 3.43455539739434e-03 
5.38541666666667e+00 1.10475400499276e-02 3.41884198287159e-03 
5.40625000000000e+00 1.09539069812112e-02 3.40323572763200e-03 
5.42708333333333e+00 1.08608987156562e-02 3.38773089772970e-03 
5.44791666666667e+00 1.07685102832331e-02 3.37233640480616e-03 
5.46875000000000e+00 1.06767363915502e-02 3.35707301570946e-03 
5.48958333333333e+00 1.05855711558132e-02 3.34194951532942e-03 
5.51041666666667e+00 1.04950088994540e-02 3.32695179883230e-03 
5.53125000000000e+00 1.04050578040397e-02 3.31205156100306e-03 
5.55208333333333e+00 1.03157138487297e-02 3.29723627710432e-03 
5.57291666666667e+00 1.02269726376119e-02 3.28250832549221e-03 
5.59375000000000e+00 1.01388297582903e-02 3.26786912622133e-03 
5.61458333333333e+00 1.00512798810511e-02 3.25331930490488e-03 
5.63541666666667e+00 9.96431515179085e-03 3.23886392661309e-03 
5.65625000000000e+00 9.87793107353067e-03 3.22450866870506e-03 
5.67708333333333e+00 9.79212303390402e-03 3.21025481955329e-03 
5.69791666666667e+00 9.70688643969852e-03 3.19610102801050e-03 
5.71875000000000e+00 9.62221849305380e-03 3.18204135127353e-03 
5.73958333333333e+00 9.53811755543005e-03 3.16806689924927e-03 
5.76041666666667e+00 9.45457951239616e-03 3.15417913128914e-03 
5.78125000000000e+00 9.37160012547626e-03 3.14038583495328e-03 
5.80208333333333e+00 9.28917502940337e-03 3.12668711934914e-03 
5.82291666666667e+00 9.20729750926593e-03 3.11308121123499e-03 
5.84375000000000e+00 9.12596172402181e-03 3.09957672416344e-03 
5.86458333333333e+00 9.04516310106916e-03 3.08618468367171e-03 
5.88541666666667e+00 8.96489680829081e-03 3.07290710746959e-03 
5.90625000000000e+00 8.88515211403124e-03 3.05974473263097e-03 
5.92708333333333e+00 8.80590116971081e-03 3.04670242580148e-03 
5.94791666666667e+00 8.72713369466769e-03 3.03378012806955e-03 
5.96875000000000e+00 8.64884522824239e-03 3.02097623109240e-03 
5.98958333333333e+00 8.57103141483802e-03 3.00828917612724e-03 
6.01041666666667e+00 8.49368793674973e-03 2.99568279467030e-03 
6.03125000000000e+00 8.41669829785303e-03 2.98309374461316e-03 
6.05208333333333e+00 8.34003995578446e-03 2.97047181590536e-03 
6.07291666666667e+00 8.26371284579290e-03 2.95780904539786e-03 
6.09375000000000e+00 8.18771783153087e-03 2.94510622696176e-03 
6.11458333333333e+00 8.11205946339172e-03 2.93236932286278e-03 
6.13541666666667e+00 8.03675315988777e-03 2.91960499553930e-03 
6.15625000000000e+00 7.96179938029444e-03 2.90681712620323e-03 
6.17708333333333e+00 7.88719862700745e-03 2.89400633154794e-03 
6.19791666666667e+00 7.81295117883857e-03 2.88117230249398e-03 
6.21875000000000e+00 7.73905741919310e-03 2.86831035289685e-03 
6.23958333333333e+00 7.66551793914681e-03 2.85541713728134e-03 
6.26041666666667e+00 7.59233327822899e-03 2.84249547201234e-03 
6.28125000000000e+00 7.51950383994004e-03 2.82954893331259e-03 
6.30208333333333e+00 7.44702992367548e-03 2.81658029707124e-03 
6.32291666666667e+00 7.37491175720480e-03 2.80359038473308e-03 
6.34375000000000e+00 7.30314963527405e-03 2.79057580415551e-03 
6.36458333333333e+00 7.23174397190248e-03 2.77753461814812e-03 
6.38541666666667e+00 7.16069517454081e-03 2.76446836047156e-03 
6.40625000000000e+00 7.09000360152803e-03 2.75137064838050e-03 
6.42708333333333e+00 7.01967024236298e-03 2.73822744438774e-03 
6.44791666666667e+00 6.94969621300717e-03 2.72503391206749e-03 
6.46875000000000e+00 6.88008250342420e-03 2.71179304372741e-03 
