Energy(eV)           EEDF(eV^-(3/2))      Anisotropy(eV^-(3/2))
1.25000000000000e-02 1.64262918281068e-01 -9.30657986947567e-04 
3.75000000000000e-02 1.64278801126178e-01 -3.04356892563427e-04 
6.25000000000000e-02 1.64291693049370e-01 1.77595230095505e-04 
8.75000000000000e-02 1.64301073051334e-01 5.27808084382115e-04 
1.12500000000000e-01 1.64306395299652e-01 8.46787639321426e-04 
1.37500000000000e-01 1.64307343933398e-01 1.32357489594677e-03 
1.62500000000000e-01 1.64299173361238e-01 1.91522741452852e-03 
1.87500000000000e-01 1.64281502865070e-01 2.41819852415135e-03 
2.12500000000000e-01 1.64254691316941e-01 2.85713648179626e-03 
2.37500000000000e-01 1.64218873662104e-01 3.19146251898180e-03 
2.62500000000000e-01 1.64176416927906e-01 4.29707966017057e-03 
2.87500000000000e-01 1.64097527839202e-01 6.14694158568183e-03 
3.12500000000000e-01 1.63981641060118e-01 7.17601956212565e-03 
3.37500000000000e-01 1.63850573466130e-01 7.49736299617388e-03 
3.62500000000000e-01 1.63712692694396e-01 7.78079181621537e-03 
3.87500000000000e-01 1.63565329814523e-01 8.76665207494258e-03 
4.12500000000000e-01 1.63376664004896e-01 1.08191403228526e-02 
4.37500000000000e-01 1.63132462111216e-01 1.19075480760235e-02 
4.62500000000000e-01 1.62836424537479e-01 1.14632708294334e-02 
4.87500000000000e-01 1.62602223027606e-01 1.11674033230369e-02 
5.12500000000000e-01 1.62356423790184e-01 1.18580886978625e-02 
5.37500000000000e-01 1.62082762241950e-01 1.30204668599877e-02 
5.62500000000000e-01 1.61778109173108e-01 1.32464981450706e-02 
5.87500000000000e-01 1.61427133819241e-01 1.25773388784529e-02 
6.12500000000000e-01 1.61151525441376e-01 1.28038493344402e-02 
6.37500000000000e-01 1.60853592203312e-01 1.41844085367433e-02 
6.62500000000000e-01 1.60531820851791e-01 1.51701490137271e-02 
6.87500000000000e-01 1.60208718911104e-01 1.52074104097153e-02 
7.12500000000000e-01 1.59856318135458e-01 1.48379712479404e-02 
7.37500000000000e-01 1.59561123132428e-01 1.49086108019567e-02 
7.62500000000000e-01 1.59255859173068e-01 1.55013196510006e-02 
7.87500000000000e-01 1.58938578040793e-01 1.54839000889594e-02 
8.12500000000000e-01 1.58563163859301e-01 1.48857577834242e-02 
8.37500000000000e-01 1.58250828811791e-01 1.48176604867357e-02 
8.62500000000000e-01 1.57901223490440e-01 1.54098889339637e-02 
8.87500000000000e-01 1.57511637105968e-01 1.59484143870155e-02 
9.12500000000000e-01 1.57083782366383e-01 1.62930947976632e-02 
9.37500000000000e-01 1.56629653430243e-01 1.65131796361020e-02 
9.62500000000000e-01 1.56176238693173e-01 1.68715401042421e-02 
9.87500000000000e-01 1.55702201279887e-01 1.73542743150635e-02 
1.01250000000000e+00 1.55207566839015e-01 1.76748141108049e-02 
1.03750000000000e+00 1.54685668664491e-01 1.78344080699284e-02 
1.06250000000000e+00 1.54169582978300e-01 1.81154274225444e-02 
1.08750000000000e+00 1.53635545267915e-01 1.85072676211106e-02 
1.11250000000000e+00 1.53083722665332e-01 1.88677266165790e-02 
1.13750000000000e+00 1.52515315745952e-01 1.91452389811627e-02 
1.16250000000000e+00 1.51924448023057e-01 1.93683340877949e-02 
1.18750000000000e+00 1.51329150161881e-01 1.96531904056103e-02 
1.21250000000000e+00 1.50716705781877e-01 1.99733689425921e-02 
1.23750000000000e+00 1.50093769923170e-01 2.02520576652309e-02 
1.26250000000000e+00 1.49457622701930e-01 2.05008746981903e-02 
1.28750000000000e+00 1.48817239765441e-01 2.07719582542065e-02 
1.31250000000000e+00 1.48166777872976e-01 2.10567471514120e-02 
1.33750000000000e+00 1.47509717099874e-01 2.13148578273414e-02 
1.36250000000000e+00 1.46843679343541e-01 2.15506630032642e-02 
1.38750000000000e+00 1.46176241195361e-01 2.18050398456780e-02 
1.41250000000000e+00 1.45502578780562e-01 2.20737894875527e-02 
1.43750000000000e+00 1.44822980609294e-01 2.23273035509971e-02 
1.46250000000000e+00 1.44136583251930e-01 2.25644097931896e-02 
1.48750000000000e+00 1.43447016113367e-01 2.28020140809770e-02 
1.51250000000000e+00 1.42752416429687e-01 2.30399425388139e-02 
1.53750000000000e+00 1.42053037519460e-01 2.32681431718691e-02 
1.56250000000000e+00 1.41348560331629e-01 2.34868092362626e-02 
1.58750000000000e+00 1.40640726107453e-01 2.37029834700128e-02 
1.61250000000000e+00 1.39928802418122e-01 2.39166265812013e-02 
1.63750000000000e+00 1.39213021576533e-01 2.41232902511652e-02 
1.66250000000000e+00 1.38493364014139e-01 2.43230261275541e-02 
1.68750000000000e+00 1.37770637717656e-01 2.45186613121858e-02 
1.71250000000000e+00 1.37044668773443e-01 2.47100998506363e-02 
1.73750000000000e+00 1.36316241277503e-01 2.48960951753367e-02 
1.76250000000000e+00 1.35585567739184e-01 2.50766840669608e-02 
1.78750000000000e+00 1.34852853026100e-01 2.52520153367817e-02 
1.81250000000000e+00 1.34118296277960e-01 2.54220754193778e-02 
1.83750000000000e+00 1.33382103091535e-01 2.55866618784564e-02 
1.86250000000000e+00 1.32644479204805e-01 2.57456550759518e-02 
1.88750000000000e+00 1.31905628886658e-01 2.58991312452489e-02 
1.91250000000000e+00 1.31165750290942e-01 2.60472901197783e-02 
1.93750000000000e+00 1.30424430953384e-01 2.61902474161216e-02 
1.96250000000000e+00 1.29681848260794e-01 2.63279993763512e-02 
1.98750000000000e+00 1.28938145228879e-01 2.64602524682858e-02 
2.01250000000000e+00 1.28193485971523e-01 2.65868522357683e-02 
2.03750000000000e+00 1.27448064323769e-01 2.67078873839257e-02 
2.06250000000000e+00 1.26702061870711e-01 2.68234162233761e-02 
2.08750000000000e+00 1.25955658481099e-01 2.69334987789910e-02 
2.11250000000000e+00 1.25209028901611e-01 2.70381381762114e-02 
2.13750000000000e+00 1.24461459666876e-01 2.71370596008893e-02 
2.16250000000000e+00 1.23713127515301e-01 2.72302201300262e-02 
2.18750000000000e+00 1.22964205192434e-01 2.73177085793148e-02 
2.21250000000000e+00 1.22214862041135e-01 2.73994255930369e-02 
2.23750000000000e+00 1.21464573912293e-01 2.74749601191953e-02 
2.26250000000000e+00 1.20713526441469e-01 2.75441524401316e-02 
2.28750000000000e+00 1.19961900433756e-01 2.76071059081487e-02 
2.31250000000000e+00 1.19209872042299e-01 2.76639473196006e-02 
2.33750000000000e+00 1.18457926739780e-01 2.77148026117957e-02 
2.36250000000000e+00 1.17706233831892e-01 2.77597397546000e-02 
2.38750000000000e+00 1.16954960241788e-01 2.77988515729615e-02 
2.41250000000000e+00 1.16204268131548e-01 2.78322248522768e-02 
2.43750000000000e+00 1.15456685876103e-01 2.78600682360049e-02 
2.46250000000000e+00 1.14712369767525e-01 2.78825005566089e-02 
2.48750000000000e+00 1.13971471661268e-01 2.78996181673112e-02 
2.51250000000000e+00 1.13234138039263e-01 2.79116199137540e-02 
2.53750000000000e+00 1.12497370110206e-01 2.79185452958648e-02 
2.56250000000000e+00 1.11761305059263e-01 2.79203816461384e-02 
2.58750000000000e+00 1.11026077969093e-01 2.79172315686168e-02 
2.61250000000000e+00 1.10291819604141e-01 2.79092268926428e-02 
2.63750000000000e+00 1.09559638025436e-01 2.78965290102646e-02 
2.66250000000000e+00 1.08829653361776e-01 2.78792869888757e-02 
2.68750000000000e+00 1.08101982749118e-01 2.78575930092023e-02 
2.71250000000000e+00 1.07376739656641e-01 2.78315922926998e-02 
2.73750000000000e+00 1.06654038280308e-01 2.78014843058515e-02 
2.76250000000000e+00 1.05933979900122e-01 2.77674391625869e-02 
2.78750000000000e+00 1.05216661712645e-01 2.77295518895139e-02 
2.81250000000000e+00 1.04502178490664e-01 2.76879038458200e-02 
2.83750000000000e+00 1.03789561361014e-01 2.76425750151048e-02 
2.86250000000000e+00 1.03078908246307e-01 2.75935361460839e-02 
2.88750000000000e+00 1.02370313044112e-01 2.75408270073853e-02 
2.91250000000000e+00 1.01663867204530e-01 2.74845962567755e-02 
2.93750000000000e+00 1.00959786164949e-01 2.74250361788916e-02 
2.96250000000000e+00 1.00258149988178e-01 2.73622483288676e-02 
2.98750000000000e+00 9.95590380710051e-02 2.72962759066764e-02 
3.01250000000000e+00 9.88625276000028e-02 2.72272599643044e-02 
3.03750000000000e+00 9.81683927038946e-02 2.71554606177463e-02 
3.06250000000000e+00 9.74766934205174e-02 2.70810883832368e-02 
3.08750000000000e+00 9.67874908514424e-02 2.70042438138499e-02 
3.11250000000000e+00 9.61008450276763e-02 2.69249974025237e-02 
3.13750000000000e+00 9.54167133746412e-02 2.68434518896563e-02 
3.16250000000000e+00 9.47351512125576e-02 2.67596717945375e-02 
3.18750000000000e+00 9.40562124206058e-02 2.66737260215288e-02 
3.21250000000000e+00 9.33799485241823e-02 2.65857435485044e-02 
3.23750000000000e+00 9.27078486446817e-02 2.64957164893661e-02 
3.26250000000000e+00 9.20399553291790e-02 2.64037004140671e-02 
3.28750000000000e+00 9.13763070433337e-02 2.63096890766246e-02 
3.31250000000000e+00 9.07169405084558e-02 2.62137385413952e-02 
3.33750000000000e+00 9.00595064490252e-02 2.61161133850686e-02 
3.36250000000000e+00 8.94040536392248e-02 2.60167398742365e-02 
3.38750000000000e+00 8.87506295010334e-02 2.59156701429865e-02 
3.41250000000000e+00 8.80992803612801e-02 2.58129643160092e-02 
3.43750000000000e+00 8.74504373080975e-02 2.57087264145218e-02 
3.46250000000000e+00 8.68041335723740e-02 2.56031474438760e-02 
3.48750000000000e+00 8.61604025321831e-02 2.54963079699979e-02 
3.51250000000000e+00 8.55192767302327e-02 2.53882594279744e-02 
3.53750000000000e+00 8.48806950410279e-02 2.52790669943162e-02 
3.56250000000000e+00 8.42446878803077e-02 2.51687530884095e-02 
3.58750000000000e+00 8.36112853342627e-02 2.50573527498060e-02 
3.61250000000000e+00 8.29805160680910e-02 2.49449405644592e-02 
3.63750000000000e+00 8.23522202129465e-02 2.48316309822344e-02 
3.66250000000000e+00 8.17264263645239e-02 2.47174934401804e-02 
3.68750000000000e+00 8.11031581800244e-02 2.46025752339658e-02 
3.71250000000000e+00 8.04824386999128e-02 2.44869064364173e-02 
3.73750000000000e+00 7.98639583168220e-02 2.43705558816341e-02 
3.76250000000000e+00 7.92477412915415e-02 2.42535042235365e-02 
3.78750000000000e+00 7.86338124900198e-02 2.41357569813458e-02 
3.81250000000000e+00 7.80221960106694e-02 2.40174222734467e-02 
3.83750000000000e+00 7.74125617360590e-02 2.38988297424205e-02 
3.86250000000000e+00 7.68049190084621e-02 2.37802879980295e-02 
3.88750000000000e+00 7.61992732093540e-02 2.36619385350091e-02 
3.91250000000000e+00 7.55956294343892e-02 2.35438049717386e-02 
3.93750000000000e+00 7.49944382502961e-02 2.34259449178692e-02 
3.96250000000000e+00 7.43956950796796e-02 2.33085363695413e-02 
3.98750000000000e+00 7.37993925434893e-02 2.31916293368575e-02 
4.01250000000000e+00 7.32055234153842e-02 2.30750542339758e-02 
4.03750000000000e+00 7.26144960092678e-02 2.29585553095149e-02 
4.06250000000000e+00 7.20263131117846e-02 2.28422427248904e-02 
4.08750000000000e+00 7.14409682431228e-02 2.27262383776724e-02 
4.11250000000000e+00 7.08584549433448e-02 2.26105649184659e-02 
4.13750000000000e+00 7.02778104904215e-02 2.24953105262117e-02 
4.16250000000000e+00 6.96990382962995e-02 2.23802634380917e-02 
4.18750000000000e+00 6.91221464977891e-02 2.22652543582207e-02 
4.21250000000000e+00 6.85471131474466e-02 2.21501918852919e-02 
4.23750000000000e+00 6.79748269145342e-02 2.20350099580487e-02 
4.26250000000000e+00 6.74052887526068e-02 2.19198632871682e-02 
4.28750000000000e+00 6.68384994878779e-02 2.18047813939059e-02 
4.31250000000000e+00 6.62744599192683e-02 2.16897450719053e-02 
4.33750000000000e+00 6.57132624767787e-02 2.15748012882120e-02 
4.36250000000000e+00 6.51549040651214e-02 2.14601274764537e-02 
4.38750000000000e+00 6.45993767352841e-02 2.13458160545524e-02 
4.41250000000000e+00 6.40466725399638e-02 2.12317310100302e-02 
4.43750000000000e+00 6.34965572027112e-02 2.11176950918440e-02 
4.46250000000000e+00 6.29490349985338e-02 2.10036894158332e-02 
4.48750000000000e+00 6.24041073460190e-02 2.08897868519117e-02 
4.51250000000000e+00 6.18617754815445e-02 2.07760219448585e-02 
4.53750000000000e+00 6.13220249903492e-02 2.06625431959816e-02 
4.56250000000000e+00 6.07848497705004e-02 2.05495422812499e-02 
4.58750000000000e+00 6.02502393724388e-02 2.04370958639400e-02 
4.61250000000000e+00 5.97181833495302e-02 2.03251656339756e-02 
4.63750000000000e+00 5.91886781614543e-02 2.02135354875877e-02 
4.66250000000000e+00 5.86617268529439e-02 2.01018920688782e-02 
4.68750000000000e+00 5.81373373624994e-02 1.99901061119312e-02 
4.71250000000000e+00 5.76155173131754e-02 1.98781048936134e-02 
4.73750000000000e+00 5.70961323955440e-02 1.97657215836029e-02 
4.76250000000000e+00 5.65792017660918e-02 1.96528209735144e-02 
4.78750000000000e+00 5.60647452524454e-02 1.95394027162793e-02 
4.81250000000000e+00 5.55527818594707e-02 1.94254817993093e-02 
4.83750000000000e+00 5.50434850728813e-02 1.93110697551597e-02 
4.86250000000000e+00 5.45368699570160e-02 1.91962583732567e-02 
4.88750000000000e+00 5.40329499130300e-02 1.90811031809748e-02 
4.91250000000000e+00 5.35317378158634e-02 1.89656064642648e-02 
4.93750000000000e+00 5.30334014320322e-02 1.88497659160657e-02 
4.96250000000000e+00 5.25379509834307e-02 1.87336627291545e-02 
4.98750000000000e+00 5.20453945465742e-02 1.86173495780577e-02 
5.01250000000000e+00 5.15557395516407e-02 1.85009370061716e-02 
5.03750000000000e+00 5.10683612861130e-02 1.83846728131783e-02 
5.06250000000000e+00 5.05832657263899e-02 1.82685141679538e-02 
5.08750000000000e+00 5.01004612766167e-02 1.81524210297486e-02 
5.11250000000000e+00 4.96199560345691e-02 1.80364145023341e-02 
5.13750000000000e+00 4.91421476280335e-02 1.79204950327126e-02 
5.16250000000000e+00 4.86670366384044e-02 1.78047878913385e-02 
5.18750000000000e+00 4.81946210830787e-02 1.76893464350646e-02 
5.21250000000000e+00 4.77248986479779e-02 1.75741514709919e-02 
5.23750000000000e+00 4.72577213143573e-02 1.74592478599941e-02 
5.26250000000000e+00 4.67930871924305e-02 1.73447400368373e-02 
5.28750000000000e+00 4.63309905882210e-02 1.72306977632793e-02 
5.31250000000000e+00 4.58714257865184e-02 1.71170995907933e-02 
5.33750000000000e+00 4.54140989290159e-02 1.70039604060924e-02 
5.36250000000000e+00 4.49590091050645e-02 1.68912490679892e-02 
5.38750000000000e+00 4.45061551749524e-02 1.67789726443407e-02 
5.41250000000000e+00 4.40555357220390e-02 1.66670699705456e-02 
5.43750000000000e+00 4.36071571057118e-02 1.65554445060783e-02 
5.46250000000000e+00 4.31610239724400e-02 1.64441015993507e-02 
5.48750000000000e+00 4.27171379702578e-02 1.63330799146227e-02 
5.51250000000000e+00 4.22755005616723e-02 1.62223774677456e-02 
5.53750000000000e+00 4.18365283658793e-02 1.61118651367395e-02 
5.56250000000000e+00 4.14002214131101e-02 1.60014835211638e-02 
5.58750000000000e+00 4.09665817702563e-02 1.58912032863692e-02 
5.61250000000000e+00 4.05356110556964e-02 1.57810377688539e-02 
5.63750000000000e+00 4.01071772254682e-02 1.56711181562808e-02 
5.66250000000000e+00 3.96812778287811e-02 1.55616353023070e-02 
5.68750000000000e+00 3.92579045804129e-02 1.54526875945546e-02 
5.71250000000000e+00 3.88370491679951e-02 1.53442871077512e-02 
5.73750000000000e+00 3.84188332281631e-02 1.52362658778894e-02 
5.76250000000000e+00 3.80032550518117e-02 1.51283159066620e-02 
5.78750000000000e+00 3.75903216088049e-02 1.50202868600396e-02 
5.81250000000000e+00 3.71800392931780e-02 1.49121060375178e-02 
5.83750000000000e+00 3.67722981359062e-02 1.48037536359938e-02 
5.86250000000000e+00 3.63671098471098e-02 1.46953873422769e-02 
5.88750000000000e+00 3.59644775670224e-02 1.45871393552372e-02 
5.91250000000000e+00 3.55644040953281e-02 1.44790681924220e-02 
5.93750000000000e+00 3.51660258434671e-02 1.43714470257152e-02 
5.96250000000000e+00 3.47693497040772e-02 1.42642631767747e-02 
5.98750000000000e+00 3.43743824665795e-02 1.41575183750400e-02 
6.01250000000000e+00 3.39811305269214e-02 1.40510228644216e-02 
6.03750000000000e+00 3.35896228259277e-02 1.39444085452925e-02 
6.06250000000000e+00 3.31998851393590e-02 1.38375294007280e-02 
6.08750000000000e+00 3.28119429568308e-02 1.37304239790110e-02 
6.11250000000000e+00 3.24258210046675e-02 1.36232193678805e-02 
6.13750000000000e+00 3.20420609012042e-02 1.35160062240719e-02 
6.16250000000000e+00 3.16606701376954e-02 1.34089039632283e-02 
6.18750000000000e+00 3.12816561597961e-02 1.33019193870519e-02 
6.21250000000000e+00 3.09050258785180e-02 1.31949548973311e-02 
6.23750000000000e+00 3.05308000617622e-02 1.30878518679858e-02 
6.26250000000000e+00 3.01589943742193e-02 1.29806217559329e-02 
6.28750000000000e+00 2.97896211426093e-02 1.28733381278934e-02 
6.31250000000000e+00 2.94226919915178e-02 1.27660604929868e-02 
6.33750000000000e+00 2.90582151526157e-02 1.26587888750624e-02 
6.36250000000000e+00 2.86962024144471e-02 1.25513981767962e-02 
6.38750000000000e+00 2.83366699279569e-02 1.24438253716914e-02 
6.41250000000000e+00 2.79796330200411e-02 1.23358260712656e-02 
6.43750000000000e+00 2.76251382105107e-02 1.22269769473036e-02 
6.46250000000000e+00 2.72732254205873e-02 1.21172223934507e-02 
6.48750000000000e+00 2.69239283686569e-02 1.20066912640620e-02 
6.51250000000000e+00 2.65772794290655e-02 1.18955343358066e-02 
6.53750000000000e+00 2.62332987540930e-02 1.17839561779291e-02 
6.56250000000000e+00 2.58920070736949e-02 1.16720134320884e-02 
6.58750000000000e+00 2.55534263736540e-02 1.15597038546078e-02 
6.61250000000000e+00 2.52175776247929e-02 1.14469743534743e-02 
6.63750000000000e+00 2.48845360102819e-02 1.13337000687641e-02 
6.66250000000000e+00 2.45543284948694e-02 1.12198878346378e-02 
6.68750000000000e+00 2.42269795397848e-02 1.11056027916629e-02 
6.71250000000000e+00 2.39025124061346e-02 1.09909633894729e-02 
6.73750000000000e+00 2.35809405466784e-02 1.08761715003659e-02 
6.76250000000000e+00 2.32622754945959e-02 1.07613583827837e-02 
6.78750000000000e+00 2.29465271367990e-02 1.06465659785467e-02 
6.81250000000000e+00 2.26337045235890e-02 1.05319047826196e-02 
6.83750000000000e+00 2.23238060997897e-02 1.04174844643616e-02 
6.86250000000000e+00 2.20168357196625e-02 1.03032508625334e-02 
6.88750000000000e+00 2.17127998767570e-02 1.01891513985771e-02 
6.91250000000000e+00 2.14117042969803e-02 1.00751524521129e-02 
6.93750000000000e+00 2.11131315247700e-02 9.96128360401575e-03 
6.96250000000000e+00 2.08170998634968e-02 9.84745986229822e-03 
6.98750000000000e+00 2.05236276540414e-02 9.73369717397986e-03 
7.01250000000000e+00 2.02327322147262e-02 9.62014748360391e-03 
7.03750000000000e+00 1.99448256418340e-02 9.50694213752148e-03 
7.06250000000000e+00 1.96599019116740e-02 9.39424539334380e-03 
7.08750000000000e+00 1.93779553686182e-02 9.28207535670797e-03 
7.11250000000000e+00 1.90989798706041e-02 9.17045497005496e-03 
7.13750000000000e+00 1.88229680710216e-02 9.05949213298517e-03 
7.16250000000000e+00 1.85499071118581e-02 8.94935736440671e-03 
7.18750000000000e+00 1.82797792253852e-02 8.84013073447358e-03 
7.21250000000000e+00 1.80125664387487e-02 8.73187396614345e-03 
7.23750000000000e+00 1.77482437756718e-02 8.62463885500244e-03 
7.26250000000000e+00 1.74867909446754e-02 8.51835098916401e-03 
7.28750000000000e+00 1.72281904546584e-02 8.41294746320162e-03 
7.31250000000000e+00 1.69724246196403e-02 8.30836282943084e-03 
7.33750000000000e+00 1.67194841737508e-02 8.20446984735053e-03 
7.36250000000000e+00 1.64693588887020e-02 8.10121660163728e-03 
7.38750000000000e+00 1.62220380309022e-02 7.99861460216897e-03 
7.41250000000000e+00 1.59775104921777e-02 7.89681407441279e-03 
7.43750000000000e+00 1.57357474496465e-02 7.79611315816133e-03 
7.46250000000000e+00 1.54967189859373e-02 7.69667186085879e-03 
7.48750000000000e+00 1.52603947968708e-02 7.59849472504488e-03 
7.51250000000000e+00 1.50267447945179e-02 7.50156691753431e-03 
7.53750000000000e+00 1.47957395894314e-02 7.40586630387283e-03 
7.56250000000000e+00 1.45673501213265e-02 7.31136876440048e-03 
7.58750000000000e+00 1.43415478342875e-02 7.21805817129259e-03 
7.61250000000000e+00 1.41183043497827e-02 7.12592642001917e-03 
7.63750000000000e+00 1.38975912318147e-02 7.03496162108182e-03 
7.66250000000000e+00 1.36793801268605e-02 6.94514334130140e-03 
7.68750000000000e+00 1.34636436469863e-02 6.85645512504757e-03 
7.71250000000000e+00 1.32503545717627e-02 6.76889239603854e-03 
7.73750000000000e+00 1.30396584183861e-02 6.68240725811211e-03 
7.76250000000000e+00 1.28315240767586e-02 6.59702690708296e-03 
