Energy(eV)           EEDF(eV^-(3/2))      Anisotropy(eV^-(3/2))
1.50000000000000e-02 4.97695686659950e-01 8.66250649834813e-03 
4.50000000000000e-02 4.97462549555128e-01 6.81407430475362e-03 
7.50000000000000e-02 4.97058046191726e-01 1.22915582348180e-02 
1.05000000000000e-01 4.96520294547758e-01 1.61122170756735e-02 
1.35000000000000e-01 4.95913128384140e-01 1.85570662510909e-02 
1.65000000000000e-01 4.95231004848330e-01 2.02768993461605e-02 
1.95000000000000e-01 4.94518976776101e-01 2.14374861314741e-02 
2.25000000000000e-01 4.93777934878099e-01 2.23088441163484e-02 
2.55000000000000e-01 4.92999122138507e-01 2.35231485057474e-02 
2.85000000000000e-01 4.92165646945631e-01 2.48833646555822e-02 
3.15000000000000e-01 4.91296248985557e-01 2.53186527634088e-02 
3.45000000000000e-01 4.90416837698574e-01 2.49712406591121e-02 
3.75000000000000e-01 4.89545736080265e-01 2.50844905062887e-02 
4.05000000000000e-01 4.88634081730920e-01 2.58185505076347e-02 
4.35000000000000e-01 4.87676364976190e-01 2.59748283571174e-02 
4.65000000000000e-01 4.86698399285587e-01 2.56686512852205e-02 
4.95000000000000e-01 4.85729569591235e-01 2.63496154940878e-02 
5.25000000000000e-01 4.84689808982938e-01 2.79826650175046e-02 
5.55000000000000e-01 4.83576463090398e-01 2.90366686456375e-02 
5.85000000000000e-01 4.82409849878725e-01 2.95867983272198e-02 
6.15000000000000e-01 4.81241417549317e-01 3.11442631606498e-02 
6.45000000000000e-01 4.79981408311216e-01 3.36764070069447e-02 
6.75000000000000e-01 4.78613487653236e-01 3.60989425863272e-02 
7.05000000000000e-01 4.77117821602124e-01 3.83994723387496e-02 
7.35000000000000e-01 4.75558254127222e-01 4.17105485615321e-02 
7.65000000000000e-01 4.73829446208733e-01 4.60235818193689e-02 
7.95000000000000e-01 4.71902645296495e-01 5.07938676648632e-02 
8.25000000000000e-01 4.69734996871380e-01 5.58558693889409e-02 
8.55000000000000e-01 4.67337797273211e-01 6.16241272279606e-02 
8.85000000000000e-01 4.64641806669854e-01 6.81161759884572e-02 
9.15000000000000e-01 4.61613859698077e-01 7.51378422124448e-02 
9.45000000000000e-01 4.58244881876973e-01 8.26741096928770e-02 
9.75000000000000e-01 4.54506439609727e-01 9.06417235144070e-02 
1.00500000000000e+00 4.50375895704266e-01 9.88728162198543e-02 
1.03500000000000e+00 4.45779218714060e-01 1.07147379378694e-01 
1.06500000000000e+00 4.40667694693449e-01 1.15385001279023e-01 
1.09500000000000e+00 4.35014480557942e-01 1.23502230895982e-01 
1.12500000000000e+00 4.28806595477997e-01 1.31395448785580e-01 
1.15500000000000e+00 4.22018189145194e-01 1.39072324191289e-01 
1.18500000000000e+00 4.14676571096851e-01 1.46698248063210e-01 
1.21500000000000e+00 4.06727028706365e-01 1.54198606991596e-01 
1.24500000000000e+00 3.98013987521351e-01 1.61323257928633e-01 
1.27500000000000e+00 3.88510440300574e-01 1.67851310679745e-01 
1.30500000000000e+00 3.78204514383275e-01 1.73433194810867e-01 
1.33500000000000e+00 3.67064580383811e-01 1.77693215797143e-01 
1.36500000000000e+00 3.55099702444314e-01 1.80322053945598e-01 
1.39500000000000e+00 3.42387384828477e-01 1.81121421977223e-01 
1.42500000000000e+00 3.29008184917295e-01 1.80016711154506e-01 
1.45500000000000e+00 3.15078631219951e-01 1.77095196528955e-01 
1.48500000000000e+00 3.00739739945527e-01 1.72616275075382e-01 
1.51500000000000e+00 2.86144265029221e-01 1.66987862941455e-01 
1.54500000000000e+00 2.71644265103917e-01 1.60609869845311e-01 
1.57500000000000e+00 2.57367745748234e-01 1.53921222735300e-01 
1.60500000000000e+00 2.43417011470846e-01 1.47258060311470e-01 
1.63500000000000e+00 2.29940329657825e-01 1.40801826570369e-01 
1.66500000000000e+00 2.17009760045958e-01 1.34608519011545e-01 
1.69500000000000e+00 2.04614750165397e-01 1.28623746741338e-01 
1.72500000000000e+00 1.92785689489074e-01 1.22700284377405e-01 
1.75500000000000e+00 1.81600214147969e-01 1.16655982664719e-01 
1.78500000000000e+00 1.71043202010753e-01 1.10413163400309e-01 
1.81500000000000e+00 1.61114600557399e-01 1.04002707246615e-01 
1.84500000000000e+00 1.51818211494130e-01 9.75814853054670e-02 
1.87500000000000e+00 1.43158708819339e-01 9.13772933749176e-02 
1.90500000000000e+00 1.35115736477036e-01 8.56164761070805e-02 
1.93500000000000e+00 1.27743673687292e-01 8.03967826447415e-02 
1.96500000000000e+00 1.21031683798398e-01 7.57295165952165e-02 
1.99500000000000e+00 1.14926811701503e-01 7.15272509124656e-02 
2.02500000000000e+00 1.09382442631605e-01 6.76485853504040e-02 
2.05500000000000e+00 1.04343729907084e-01 6.39722271187829e-02 
2.08500000000000e+00 9.97618619449487e-02 6.04305441970807e-02 
2.11500000000000e+00 9.55867458962508e-02 5.70018277496066e-02 
2.14500000000000e+00 9.17052827682839e-02 5.37444544956106e-02 
2.17500000000000e+00 8.80994542582629e-02 5.06786260853727e-02 
2.20500000000000e+00 8.47583616201658e-02 4.78268424679157e-02 
2.23500000000000e+00 8.16633678079326e-02 4.51959715332740e-02 
2.26500000000000e+00 7.88033906199252e-02 4.27736902012647e-02 
2.29500000000000e+00 7.61660041825094e-02 4.05337234994962e-02 
2.32500000000000e+00 7.37255151626613e-02 3.84460842834001e-02 
2.35500000000000e+00 7.14572508114372e-02 3.64883886431074e-02 
2.38500000000000e+00 6.93380671928899e-02 3.46471897023940e-02 
2.41500000000000e+00 6.73507929439496e-02 3.29187697915180e-02 
2.44500000000000e+00 6.54932604981582e-02 3.13066567554289e-02 
2.47500000000000e+00 6.37621050147002e-02 2.98120745646876e-02 
2.50500000000000e+00 6.21540200858537e-02 2.84325798221764e-02 
2.53500000000000e+00 6.06557385506868e-02 2.71674488967722e-02 
2.56500000000000e+00 5.92472019542290e-02 2.60016602933750e-02 
2.59500000000000e+00 5.79156951712484e-02 2.49160396503782e-02 
2.62500000000000e+00 5.66518928882114e-02 2.38935601244645e-02 
2.65500000000000e+00 5.54470125529585e-02 2.29211255619108e-02 
2.68500000000000e+00 5.43025058647328e-02 2.20007476329025e-02 
2.71500000000000e+00 5.32193555013868e-02 2.11414319451746e-02 
2.74500000000000e+00 5.21944056686647e-02 2.03489118942852e-02 
2.77500000000000e+00 5.12252743192382e-02 1.96232334522836e-02 
2.80500000000000e+00 5.03033863841270e-02 1.89530391965100e-02 
2.83500000000000e+00 4.94195693690194e-02 1.83244348048191e-02 
2.86500000000000e+00 4.85705689822911e-02 1.77292370547830e-02 
2.89500000000000e+00 4.77535910949914e-02 1.71643721927835e-02 
2.92500000000000e+00 4.69692687803093e-02 1.66340694949179e-02 
2.95500000000000e+00 4.62176846717513e-02 1.61440935168462e-02 
2.98500000000000e+00 4.54954791370900e-02 1.56937778487731e-02 
3.01500000000000e+00 4.47999604219960e-02 1.52783583425075e-02 
3.04500000000000e+00 4.41276114099707e-02 1.48897561140508e-02 
3.07500000000000e+00 4.34755401305227e-02 1.45206186551075e-02 
3.10500000000000e+00 4.28435568642238e-02 1.41691021221429e-02 
3.13500000000000e+00 4.22309462451505e-02 1.38360078306203e-02 
3.16500000000000e+00 4.16374899789105e-02 1.35236233838212e-02 
3.19500000000000e+00 4.10623932910654e-02 1.32337056309688e-02 
3.22500000000000e+00 4.05034718796330e-02 1.29637583429666e-02 
3.25500000000000e+00 3.99594713176887e-02 1.27090851778952e-02 
3.28500000000000e+00 3.94291086435326e-02 1.24652868668259e-02 
3.31500000000000e+00 3.89117183171375e-02 1.22302242483570e-02 
3.34500000000000e+00 3.84070579049876e-02 1.20047017094398e-02 
3.37500000000000e+00 3.79146630720949e-02 1.17893320326022e-02 
3.40500000000000e+00 3.74340206271746e-02 1.15839211576727e-02 
3.43500000000000e+00 3.69644131019154e-02 1.13874486937202e-02 
3.46500000000000e+00 3.65049799411089e-02 1.11979618606832e-02 
3.49500000000000e+00 3.60552919054052e-02 1.10139977288501e-02 
3.52500000000000e+00 3.56150428780499e-02 1.08352734458171e-02 
3.55500000000000e+00 3.51840778673640e-02 1.06623337782991e-02 
3.58500000000000e+00 3.47621545812531e-02 1.04964340233259e-02 
3.61500000000000e+00 3.43490246631950e-02 1.03389145188872e-02 
3.64500000000000e+00 3.39442081094500e-02 1.01894799450028e-02 
3.67500000000000e+00 3.35473884778620e-02 1.00460914664421e-02 
3.70500000000000e+00 3.31582746094744e-02 9.90760982733378e-03 
3.73500000000000e+00 3.27766603767414e-02 9.77414786645718e-03 
3.76500000000000e+00 3.24022962677842e-02 9.64573622998410e-03 
3.79500000000000e+00 3.20349500298087e-02 9.52187857659249e-03 
3.82500000000000e+00 3.16742637139780e-02 9.40201927491854e-03 
3.85500000000000e+00 3.13199159805870e-02 9.28571068519221e-03 
3.88500000000000e+00 3.09716762686245e-02 9.17248926414530e-03 
3.91500000000000e+00 3.06293171936062e-02 9.06232508001700e-03 
3.94500000000000e+00 3.02928718175000e-02 8.95560281439136e-03 
3.97500000000000e+00 2.99621452804036e-02 8.85259623773450e-03 
4.00500000000000e+00 2.96371039778515e-02 8.75324285253506e-03 
4.03500000000000e+00 2.93169649009458e-02 8.65750828797874e-03 
4.06500000000000e+00 2.90012381918476e-02 8.56514912033708e-03 
4.09500000000000e+00 2.86899197574190e-02 8.47594605383570e-03 
4.12500000000000e+00 2.83828261451480e-02 8.38982724600248e-03 
4.15500000000000e+00 2.80797536497492e-02 8.30661771866628e-03 
4.18500000000000e+00 2.77805727442930e-02 8.22606975301905e-03 
4.21500000000000e+00 2.74851476025751e-02 8.14808705996706e-03 
4.24500000000000e+00 2.71934393910455e-02 8.07264229253131e-03 
4.27500000000000e+00 2.69053081561391e-02 7.99971049166283e-03 
4.30500000000000e+00 2.66206369841336e-02 7.92927702809906e-03 
4.33500000000000e+00 2.63393231195196e-02 7.86130379630259e-03 
4.36500000000000e+00 2.60612634091720e-02 7.79566794635778e-03 
4.39500000000000e+00 2.57863536572654e-02 7.73218277757765e-03 
4.42500000000000e+00 2.55144788951465e-02 7.67067484552921e-03 
4.45500000000000e+00 2.52455759845784e-02 7.61101035262399e-03 
4.48500000000000e+00 2.49795944173824e-02 7.55309566172741e-03 
4.51500000000000e+00 2.47164540102208e-02 7.49668888896577e-03 
4.54500000000000e+00 2.44561467869274e-02 7.44141233679549e-03 
4.57500000000000e+00 2.41988048181768e-02 7.38710910964938e-03 
4.60500000000000e+00 2.39443714609247e-02 7.33378467884321e-03 
4.63500000000000e+00 2.36927829193271e-02 7.28133801486828e-03 
4.66500000000000e+00 2.34439986417265e-02 7.22964989558212e-03 
4.69500000000000e+00 2.31979746108997e-02 7.17864606679271e-03 
4.72500000000000e+00 2.29546604402499e-02 7.12829681322969e-03 
4.75500000000000e+00 2.27139983603623e-02 7.07874693613925e-03 
4.78500000000000e+00 2.24759386006258e-02 7.03033502812200e-03 
4.81500000000000e+00 2.22404195660457e-02 6.98330002409763e-03 
4.84500000000000e+00 2.20074088523211e-02 6.93769082850230e-03 
4.87500000000000e+00 2.17768629297299e-02 6.89350946440920e-03 
4.90500000000000e+00 2.15487182991959e-02 6.85061366667291e-03 
4.93500000000000e+00 2.13228903901575e-02 6.80868034347759e-03 
4.96500000000000e+00 2.10993277715675e-02 6.76745607325549e-03 
4.99500000000000e+00 2.08779982868496e-02 6.72686429285139e-03 
5.02500000000000e+00 2.06587883242374e-02 6.68689488751896e-03 
5.05500000000000e+00 2.04415052832999e-02 6.64765300639844e-03 
5.08500000000000e+00 2.02260870522657e-02 6.60929180505310e-03 
5.11500000000000e+00 2.00124729928126e-02 6.57169392385024e-03 
5.14500000000000e+00 1.98006036617096e-02 6.53455934960522e-03 
5.17500000000000e+00 1.95904710468146e-02 6.49775998341131e-03 
5.20500000000000e+00 1.93820864644550e-02 6.46127539031339e-03 
5.23500000000000e+00 1.91754181522605e-02 6.42507196606403e-03 
5.26500000000000e+00 1.89704425497868e-02 6.38912576763546e-03 
5.29500000000000e+00 1.87671455897204e-02 6.35342839600959e-03 
5.32500000000000e+00 1.85655059893914e-02 6.31797635808450e-03 
5.35500000000000e+00 1.83654930001667e-02 6.28276737023815e-03 
5.38500000000000e+00 1.81670919841991e-02 6.24779443875639e-03 
5.41500000000000e+00 1.79702887481850e-02 6.21304732972167e-03 
5.44500000000000e+00 1.77750699129207e-02 6.17852558423350e-03 
5.47500000000000e+00 1.75814213800996e-02 6.14425140152944e-03 
5.50500000000000e+00 1.73893284668206e-02 6.11023001014021e-03 
5.53500000000000e+00 1.71988003094980e-02 6.07642333530669e-03 
5.56500000000000e+00 1.70098363615851e-02 6.04280034741025e-03 
5.59500000000000e+00 1.68224242458213e-02 6.00935994611121e-03 
5.62500000000000e+00 1.66365476436545e-02 5.97611417371421e-03 
5.65500000000000e+00 1.64521865817795e-02 5.94307911222264e-03 
5.68500000000000e+00 1.62693281608267e-02 5.91026552867458e-03 
5.71500000000000e+00 1.60879592817095e-02 5.87766794956343e-03 
5.74500000000000e+00 1.59080786099600e-02 5.84526643181491e-03 
5.77500000000000e+00 1.57296741864286e-02 5.81305370648653e-03 
5.80500000000000e+00 1.55527341636153e-02 5.78103159898944e-03 
5.83500000000000e+00 1.53772397973546e-02 5.74920302638027e-03 
5.86500000000000e+00 1.52031758779798e-02 5.71758506544722e-03 
5.89500000000000e+00 1.50305278936610e-02 5.68619961625898e-03 
5.92500000000000e+00 1.48592485250588e-02 5.65506165789488e-03 
5.95500000000000e+00 1.46892747458964e-02 5.62418118648681e-03 
5.98500000000000e+00 1.45205942630742e-02 5.59355674262167e-03 
6.01500000000000e+00 1.43531949041720e-02 5.56309530201489e-03 
6.04500000000000e+00 1.41867868620506e-02 5.53264166037961e-03 
6.07500000000000e+00 1.40213395585224e-02 5.50207543331610e-03 
6.10500000000000e+00 1.38568550312806e-02 5.47139423629506e-03 
6.13500000000000e+00 1.36933632749354e-02 5.44061698656726e-03 
6.16500000000000e+00 1.35308796031876e-02 5.40976247953080e-03 
6.19500000000000e+00 1.33694050822515e-02 5.37883542459531e-03 
6.22500000000000e+00 1.32089407493467e-02 5.34782799044492e-03 
6.25500000000000e+00 1.30494883211415e-02 5.31673583765396e-03 
6.28500000000000e+00 1.28910490090382e-02 5.28556793245870e-03 
6.31500000000000e+00 1.27336235184341e-02 5.25433710918041e-03 
6.34500000000000e+00 1.25772123004455e-02 5.22304767639846e-03 
6.37500000000000e+00 1.24218158762161e-02 5.19169527745530e-03 
6.40500000000000e+00 1.22674349812816e-02 5.16026184015843e-03 
6.43500000000000e+00 1.21140720742028e-02 5.12871852780523e-03 
6.46500000000000e+00 1.19617299925252e-02 5.09705575773854e-03 
6.49500000000000e+00 1.18104109243201e-02 5.06528634653465e-03 
6.52500000000000e+00 1.16601164860476e-02 5.03343139841325e-03 
6.55500000000000e+00 1.15108474415296e-02 5.00151039703584e-03 
6.58500000000000e+00 1.13626043817118e-02 4.96953300464960e-03 
6.61500000000000e+00 1.12153877286692e-02 4.93749771887384e-03 
6.64500000000000e+00 1.10692080810160e-02 4.90539694056444e-03 
6.67500000000000e+00 1.09240661023289e-02 4.87323550300643e-03 
6.70500000000000e+00 1.07799620896897e-02 4.84102918726578e-03 
6.73500000000000e+00 1.06368956164102e-02 4.80880112661105e-03 
6.76500000000000e+00 1.04948655533285e-02 4.77657232795574e-03 
6.79500000000000e+00 1.03538704330695e-02 4.74435528491633e-03 
6.82500000000000e+00 1.02139074556918e-02 4.71215816079810e-03 
6.85500000000000e+00 1.00749727088549e-02 4.67998238041135e-03 
6.88500000000000e+00 9.93706427123731e-03 4.64782547978098e-03 
6.91500000000000e+00 9.80018034656950e-03 4.61568614392456e-03 
6.94500000000000e+00 9.66427590995976e-03 4.58356912995749e-03 
6.97500000000000e+00 9.52934985378866e-03 4.55147170295802e-03 
7.00500000000000e+00 9.39540098081995e-03 4.51937225504557e-03 
7.03500000000000e+00 9.26240013178240e-03 4.48721811234003e-03 
7.06500000000000e+00 9.13033626203816e-03 4.45496880957773e-03 
7.09500000000000e+00 8.99921247012384e-03 4.42254705190534e-03 
7.12500000000000e+00 8.86898733952943e-03 4.38968216219903e-03 
7.15500000000000e+00 8.73958450100447e-03 4.35606035093673e-03 
7.18500000000000e+00 8.61103235506810e-03 4.32157860804532e-03 
7.21500000000000e+00 8.48335809229088e-03 4.28628234330134e-03 
7.24500000000000e+00 8.35658732418410e-03 4.25021260456910e-03 
7.27500000000000e+00 8.23074508359175e-03 4.21340148816423e-03 
7.30500000000000e+00 8.10585557287352e-03 4.17587635074818e-03 
7.33500000000000e+00 7.98194259260358e-03 4.13766173890248e-03 
7.36500000000000e+00 7.85902921574109e-03 4.09878583986484e-03 
7.39500000000000e+00 7.73713742418000e-03 4.05930133178455e-03 
7.42500000000000e+00 7.61629465059431e-03 4.01931109910999e-03 
7.45500000000000e+00 7.49653150331319e-03 3.97892775660539e-03 
7.48500000000000e+00 7.37786071432162e-03 3.93821235174319e-03 
7.51500000000000e+00 7.26029428694961e-03 3.89718892982855e-03 
7.54500000000000e+00 7.14384366216115e-03 3.85588031608939e-03 
7.57500000000000e+00 7.02851952212568e-03 3.81431159188445e-03 
7.60500000000000e+00 6.91433179316657e-03 3.77250857908474e-03 
7.63500000000000e+00 6.80128968688687e-03 3.73049541288139e-03 
7.66500000000000e+00 6.68940169339845e-03 3.68829534128713e-03 
7.69500000000000e+00 6.57867566531211e-03 3.64593155346855e-03 
7.72500000000000e+00 6.46912572688600e-03 3.60342406160603e-03 
7.75500000000000e+00 6.36077208299547e-03 3.56078498592525e-03 
7.78500000000000e+00 6.25362060967020e-03 3.51802752829942e-03 
7.81500000000000e+00 6.14767680553070e-03 3.47517167554547e-03 
7.84500000000000e+00 6.04293814154730e-03 3.43224437144052e-03 
7.87500000000000e+00 5.93940864882504e-03 3.38926434974854e-03 
7.90500000000000e+00 5.83709200056931e-03 3.34624535231941e-03 
7.93500000000000e+00 5.73596182033021e-03 3.30320646121749e-03 
7.96500000000000e+00 5.63600723228655e-03 3.26015682511655e-03 
7.99500000000000e+00 5.53723193069583e-03 3.21713980256647e-03 
8.02500000000000e+00 5.43964850848315e-03 3.17427657340518e-03 
8.05500000000000e+00 5.34329793350575e-03 3.13165584788025e-03 
8.08500000000000e+00 5.24815657733866e-03 3.08928895269197e-03 
8.11500000000000e+00 5.15421968374595e-03 3.04716436643990e-03 
8.14500000000000e+00 5.06149927398940e-03 3.00529223921248e-03 
8.17500000000000e+00 4.96998890086164e-03 2.96368650453880e-03 
8.20500000000000e+00 4.87967986461269e-03 2.92235746413314e-03 
8.23500000000000e+00 4.79056179980158e-03 2.88131637964896e-03 
8.26500000000000e+00 4.70262593865079e-03 2.84057192158598e-03 
8.29500000000000e+00 4.61586513933290e-03 2.80012853758430e-03 
8.32500000000000e+00 4.53025973226749e-03 2.75999101910558e-03 
8.35500000000000e+00 4.44577816432267e-03 2.72016746689237e-03 
8.38500000000000e+00 4.36241287087371e-03 2.68066048680317e-03 
8.41500000000000e+00 4.28015708234300e-03 2.64144511633469e-03 
8.44500000000000e+00 4.19900768083958e-03 2.60246693932345e-03 
8.47500000000000e+00 4.11896109849241e-03 2.56370590912485e-03 
8.50500000000000e+00 4.04001342470312e-03 2.52515848563021e-03 
8.53500000000000e+00 3.96215045674765e-03 2.48680548700265e-03 
8.56500000000000e+00 3.88535901666477e-03 2.44863506481628e-03 
8.59500000000000e+00 3.80963686164895e-03 2.41064423737679e-03 
8.62500000000000e+00 3.73499019866156e-03 2.37281120848364e-03 
8.65500000000000e+00 3.66143399246529e-03 2.33510472566578e-03 
8.68500000000000e+00 3.58896731885856e-03 2.29752492142686e-03 
8.71500000000000e+00 3.51758879200465e-03 2.26008594841365e-03 
8.74500000000000e+00 3.44729659138260e-03 2.22280143486797e-03 
8.77500000000000e+00 3.37808845503258e-03 2.18568420922784e-03 
8.80500000000000e+00 3.30996170251142e-03 2.14874916764217e-03 
8.83500000000000e+00 3.24291294530187e-03 2.11201437488392e-03 
8.86500000000000e+00 3.17693828412869e-03 2.07549554011387e-03 
8.89500000000000e+00 3.11203344565835e-03 2.03920366360378e-03 
8.92500000000000e+00 3.04819252501070e-03 2.00314785531538e-03 
8.95500000000000e+00 2.98540813372490e-03 1.96733668052278e-03 
8.98500000000000e+00 2.92367525360628e-03 1.93177771227616e-03 
9.01500000000000e+00 2.86298857026664e-03 1.89650595825746e-03 
9.04500000000000e+00 2.80339765914219e-03 1.86155007477920e-03 
9.07500000000000e+00 2.74489218256799e-03 1.82694294726125e-03 
9.10500000000000e+00 2.68746167281944e-03 1.79268764186727e-03 
9.13500000000000e+00 2.63109097271844e-03 1.75878904674372e-03 
9.16500000000000e+00 2.57576729675346e-03 1.72525016127042e-03 
9.19500000000000e+00 2.52148008621642e-03 1.69208107875978e-03 
9.22500000000000e+00 2.46821619022901e-03 1.65931717914160e-03 
9.25500000000000e+00 2.41595977904725e-03 1.62700030556938e-03 
9.28500000000000e+00 2.36469719615612e-03 1.59514390668617e-03 
9.31500000000000e+00 2.31441488547381e-03 1.56374491723442e-03 
