Energy(eV)           EEDF(eV^-(3/2))      Anisotropy(eV^-(3/2))
1.04166666666667e-02 1.73239902964181e-01 -1.32667815836018e-03 
3.12500000000000e-02 1.73258569676575e-01 -4.56497556658231e-04 
5.20833333333333e-02 1.73273958867242e-01 1.27154915892119e-04 
7.29166666666667e-02 1.73286172631532e-01 5.00713017858253e-04 
9.37500000000000e-02 1.73294814816833e-01 8.11994064039768e-04 
1.14583333333333e-01 1.73299690718959e-01 1.09586809383912e-03 
1.35416666666667e-01 1.73300632156858e-01 1.70743337656872e-03 
1.56250000000000e-01 1.73289325725848e-01 2.56225180079238e-03 
1.77083333333333e-01 1.73265809759482e-01 3.05807502853985e-03 
1.97916666666667e-01 1.73236629684666e-01 3.33903788333736e-03 
2.18750000000000e-01 1.73199850707140e-01 3.64281357613821e-03 
2.39583333333333e-01 1.73156423683549e-01 3.87956796086965e-03 
2.60416666666667e-01 1.73107017377930e-01 4.67092454994069e-03 
2.81250000000000e-01 1.73032022569753e-01 5.98238627800583e-03 
3.02083333333333e-01 1.72930937813556e-01 6.97205142410816e-03 
3.22916666666667e-01 1.72812705433941e-01 7.57462060507829e-03 
3.43750000000000e-01 1.72672613596998e-01 7.77526856010523e-03 
3.64583333333333e-01 1.72538168551967e-01 8.15118779146278e-03 
3.85416666666667e-01 1.72383708906948e-01 9.31884833426619e-03 
4.06250000000000e-01 1.72193393861445e-01 1.06025909584229e-02 
4.27083333333333e-01 1.71976977785626e-01 1.14198650470718e-02 
4.47916666666667e-01 1.71743543760719e-01 1.16093637387562e-02 
4.68750000000000e-01 1.71479606913948e-01 1.13043365503465e-02 
4.89583333333333e-01 1.71250921455140e-01 1.19041596571771e-02 
5.10416666666667e-01 1.70980762683272e-01 1.36027795380281e-02 
5.31250000000000e-01 1.70668985921878e-01 1.48499667316255e-02 
5.52083333333333e-01 1.70337772114073e-01 1.53116532536404e-02 
5.72916666666667e-01 1.69974700550807e-01 1.50004290122979e-02 
5.93750000000000e-01 1.69620161224282e-01 1.45520404566436e-02 
6.14583333333333e-01 1.69300633640494e-01 1.48906142208086e-02 
6.35416666666667e-01 1.68971054625383e-01 1.56469389690343e-02 
6.56250000000000e-01 1.68635758931698e-01 1.62109938197965e-02 
6.77083333333333e-01 1.68300509232146e-01 1.59670638444464e-02 
6.97916666666667e-01 1.67912952414592e-01 1.50809723183992e-02 
7.18750000000000e-01 1.67625758149467e-01 1.47629023196991e-02 
7.39583333333333e-01 1.67335932497606e-01 1.54381156864165e-02 
7.60416666666667e-01 1.67032782287446e-01 1.60476763942337e-02 
7.81250000000000e-01 1.66721484357490e-01 1.64247010001037e-02 
8.02083333333333e-01 1.66392462791176e-01 1.63617395429501e-02 
8.22916666666667e-01 1.66040978154085e-01 1.61225357953389e-02 
8.43750000000000e-01 1.65700390597713e-01 1.62975504207480e-02 
8.64583333333333e-01 1.65326404368378e-01 1.67699770780646e-02 
8.85416666666667e-01 1.64917237332493e-01 1.71882076730994e-02 
9.06250000000000e-01 1.64474791641538e-01 1.72188043829049e-02 
9.27083333333333e-01 1.63989822398714e-01 1.69612449707377e-02 
9.47916666666667e-01 1.63546270432117e-01 1.70168755325940e-02 
9.68750000000000e-01 1.63086291437317e-01 1.74116700457291e-02 
9.89583333333333e-01 1.62609010857046e-01 1.77743970446660e-02 
1.01041666666667e+00 1.62116553375389e-01 1.80534271306276e-02 
1.03125000000000e+00 1.61609255351228e-01 1.81868608360588e-02 
1.05208333333333e+00 1.61083907721201e-01 1.82452195437394e-02 
1.07291666666667e+00 1.60565935736142e-01 1.84353562032895e-02 
1.09375000000000e+00 1.60034284060593e-01 1.87103325851933e-02 
1.11458333333333e+00 1.59489697662762e-01 1.89609171999983e-02 
1.13541666666667e+00 1.58932569502172e-01 1.91131047537778e-02 
1.15625000000000e+00 1.58354135223404e-01 1.91809899270028e-02 
1.17708333333333e+00 1.57782046402357e-01 1.93430347789306e-02 
1.19791666666667e+00 1.57196910653141e-01 1.95817712343602e-02 
1.21875000000000e+00 1.56601208031422e-01 1.98075511284105e-02 
1.23958333333333e+00 1.55998243513407e-01 1.99999727863618e-02 
1.26041666666667e+00 1.55385128384394e-01 2.01620514225387e-02 
1.28125000000000e+00 1.54771291443140e-01 2.03509729688615e-02 
1.30208333333333e+00 1.54150420609581e-01 2.05602294963427e-02 
1.32291666666667e+00 1.53524285847615e-01 2.07636812260726e-02 
1.34375000000000e+00 1.52893992214208e-01 2.09489874279518e-02 
1.36458333333333e+00 1.52257525449692e-01 2.11166470920468e-02 
1.38541666666667e+00 1.51621133510610e-01 2.13015792621661e-02 
1.40625000000000e+00 1.50980731420601e-01 2.15012526438313e-02 
1.42708333333333e+00 1.50336471805879e-01 2.16967367642552e-02 
1.44791666666667e+00 1.49688557698062e-01 2.18816677328485e-02 
1.46875000000000e+00 1.49036495469062e-01 2.20555022582860e-02 
1.48958333333333e+00 1.48382529719013e-01 2.22287744035534e-02 
1.51041666666667e+00 1.47725551372094e-01 2.24018716690518e-02 
1.53125000000000e+00 1.47065718930318e-01 2.25702906993718e-02 
1.55208333333333e+00 1.46403084271007e-01 2.27327539718901e-02 
1.57291666666667e+00 1.45737854603889e-01 2.28903199184191e-02 
1.59375000000000e+00 1.45070602531874e-01 2.30460350649510e-02 
1.61458333333333e+00 1.44401098589360e-01 2.31993309936022e-02 
1.63541666666667e+00 1.43729492666587e-01 2.33477734689008e-02 
1.65625000000000e+00 1.43055735393749e-01 2.34911236796191e-02 
1.67708333333333e+00 1.42380414930065e-01 2.36317813006924e-02 
1.69791666666667e+00 1.41703457098206e-01 2.37702167230059e-02 
1.71875000000000e+00 1.41025206626153e-01 2.39052487969013e-02 
1.73958333333333e+00 1.40346221032199e-01 2.40366142478544e-02 
1.76041666666667e+00 1.39666641506389e-01 2.41643478024555e-02 
1.78125000000000e+00 1.38986604620693e-01 2.42885427481562e-02 
1.80208333333333e+00 1.38306243146857e-01 2.44091989653454e-02 
1.82291666666667e+00 1.37625692808471e-01 2.45261375726365e-02 
1.84375000000000e+00 1.36945094499303e-01 2.46391597168635e-02 
1.86458333333333e+00 1.36264589751531e-01 2.47482458749791e-02 
1.88541666666667e+00 1.35584316666035e-01 2.48535027915534e-02 
1.90625000000000e+00 1.34904408235826e-01 2.49550865620996e-02 
1.92708333333333e+00 1.34224413565866e-01 2.50530652137572e-02 
1.94791666666667e+00 1.33544307200042e-01 2.51475059924035e-02 
1.96875000000000e+00 1.32864205506768e-01 2.52383689566502e-02 
1.98958333333333e+00 1.32184202057886e-01 2.53255287738328e-02 
2.01041666666667e+00 1.31504415375695e-01 2.54089886261718e-02 
2.03125000000000e+00 1.30824964841092e-01 2.54888266572619e-02 
2.05208333333333e+00 1.30145964712453e-01 2.55650515458133e-02 
2.07291666666667e+00 1.29467528644859e-01 2.56376931657231e-02 
2.09375000000000e+00 1.28789767079830e-01 2.57068339930013e-02 
2.11458333333333e+00 1.28112615988112e-01 2.57724970226007e-02 
2.13541666666667e+00 1.27435495063499e-01 2.58345835308501e-02 
2.15625000000000e+00 1.26758509075004e-01 2.58930921137641e-02 
2.17708333333333e+00 1.26081760607506e-01 2.59480774538256e-02 
2.19791666666667e+00 1.25405350066349e-01 2.59995514485854e-02 
2.21875000000000e+00 1.24729260500979e-01 2.60474107461569e-02 
2.23958333333333e+00 1.24053419627222e-01 2.60915141815911e-02 
2.26041666666667e+00 1.23377934003920e-01 2.61318199995375e-02 
2.28125000000000e+00 1.22702907923366e-01 2.61683623510907e-02 
2.30208333333333e+00 1.22028443650294e-01 2.62012111019856e-02 
2.32291666666667e+00 1.21354719250894e-01 2.62304428789556e-02 
2.34375000000000e+00 1.20681884538094e-01 2.62561016195274e-02 
2.36458333333333e+00 1.20010035516184e-01 2.62782234892481e-02 
2.38541666666667e+00 1.19339266296980e-01 2.62968787538689e-02 
2.40625000000000e+00 1.18669667915135e-01 2.63121081229098e-02 
2.42708333333333e+00 1.18002911440110e-01 2.63239902484245e-02 
2.44791666666667e+00 1.17339480252018e-01 2.63326075423924e-02 
2.46875000000000e+00 1.16679459758747e-01 2.63380198376449e-02 
2.48958333333333e+00 1.16022932517286e-01 2.63402941387562e-02 
2.51041666666667e+00 1.15369977905084e-01 2.63395664685508e-02 
2.53125000000000e+00 1.14718374024005e-01 2.63358697335943e-02 
2.55208333333333e+00 1.14068196705794e-01 2.63291511095510e-02 
2.57291666666667e+00 1.13419520896307e-01 2.63194562930118e-02 
2.59375000000000e+00 1.12772419222069e-01 2.63068677110785e-02 
2.61458333333333e+00 1.12127043456812e-01 2.62914635155353e-02 
2.63541666666667e+00 1.11483788530820e-01 2.62733173707194e-02 
2.65625000000000e+00 1.10842719150177e-01 2.62524967056848e-02 
2.67708333333333e+00 1.10203898433200e-01 2.62290528214741e-02 
2.69791666666667e+00 1.09567387492636e-01 2.62030564430326e-02 
2.71875000000000e+00 1.08933245943773e-01 2.61746054222633e-02 
2.73958333333333e+00 1.08301530608266e-01 2.61438116675853e-02 
2.76041666666667e+00 1.07672293624505e-01 2.61107631246452e-02 
2.78125000000000e+00 1.07045585061689e-01 2.60755096918090e-02 
2.80208333333333e+00 1.06421453740116e-01 2.60380883324050e-02 
2.82291666666667e+00 1.05799390065254e-01 2.59985525249443e-02 
2.84375000000000e+00 1.05179072640888e-01 2.59569083754312e-02 
2.86458333333333e+00 1.04560552089802e-01 2.59131181484340e-02 
2.88541666666667e+00 1.03943878194856e-01 2.58671660177751e-02 
2.90625000000000e+00 1.03329100358387e-01 2.58191001160673e-02 
2.92708333333333e+00 1.02716308835454e-01 2.57690035247850e-02 
2.94791666666667e+00 1.02105559166246e-01 2.57169245649919e-02 
2.96875000000000e+00 1.01496895551970e-01 2.56628865970227e-02 
2.98958333333333e+00 1.00890361221258e-01 2.56069348710213e-02 
3.01041666666667e+00 1.00285997814870e-01 2.55491505518854e-02 
3.03125000000000e+00 9.96837210872400e-02 2.54896221193771e-02 
3.05208333333333e+00 9.90835648468506e-02 2.54284468574956e-02 
3.07291666666667e+00 9.84855629684613e-02 2.53657713018422e-02 
3.09375000000000e+00 9.78897461048109e-02 2.53016884730417e-02 
3.11458333333333e+00 9.72961356124053e-02 2.52362445012540e-02 
3.13541666666667e+00 9.67047266268753e-02 2.51694883928711e-02 
3.15625000000000e+00 9.61155465330577e-02 2.51014519519129e-02 
3.17708333333333e+00 9.55286219806014e-02 2.50321718471929e-02 
3.19791666666667e+00 9.49439784065620e-02 2.49617072544262e-02 
3.21875000000000e+00 9.43620657194426e-02 2.48901158484942e-02 
3.23958333333333e+00 9.37835417075046e-02 2.48174410968114e-02 
3.26041666666667e+00 9.32084240534390e-02 2.47436887000074e-02 
3.28125000000000e+00 9.26367290917759e-02 2.46687959666972e-02 
3.30208333333333e+00 9.20684739046557e-02 2.45927632401256e-02 
3.32291666666667e+00 9.15026387364899e-02 2.45157046144733e-02 
3.34375000000000e+00 9.09385562011267e-02 2.44376444178535e-02 
3.36458333333333e+00 9.03762505019200e-02 2.43585728182384e-02 
3.38541666666667e+00 8.98157451201599e-02 2.42785169600091e-02 
3.40625000000000e+00 8.92570630014216e-02 2.41975032906977e-02 
3.42708333333333e+00 8.87002822890744e-02 2.41155749580105e-02 
3.44791666666667e+00 8.81454353385227e-02 2.40328144745621e-02 
3.46875000000000e+00 8.75925393923130e-02 2.39493163538804e-02 
3.48958333333333e+00 8.70416103781977e-02 2.38651412811208e-02 
3.51041666666667e+00 8.64926635498180e-02 2.37803200781223e-02 
3.53125000000000e+00 8.59456752896950e-02 2.36948788407071e-02 
3.55208333333333e+00 8.54006600278517e-02 2.36088221259467e-02 
3.57291666666667e+00 8.48576321675196e-02 2.35221640297431e-02 
3.59375000000000e+00 8.43166054765512e-02 2.34349379020165e-02 
3.61458333333333e+00 8.37775772910369e-02 2.33471876719297e-02 
3.63541666666667e+00 8.32404979684679e-02 2.32589955018805e-02 
3.65625000000000e+00 8.27053796686922e-02 2.31704362174094e-02 
3.67708333333333e+00 8.21722309946040e-02 2.30815148945081e-02 
3.69791666666667e+00 8.16410614584450e-02 2.29922178255321e-02 
3.71875000000000e+00 8.11117219272524e-02 2.29025712393911e-02 
3.73958333333333e+00 8.05839858679675e-02 2.28125842397479e-02 
3.76041666666667e+00 8.00578654915944e-02 2.27222240856329e-02 
3.78125000000000e+00 7.95333734179439e-02 2.26314913379178e-02 
3.80208333333333e+00 7.90105218782039e-02 2.25404406357978e-02 
3.82291666666667e+00 7.84892840600130e-02 2.24492614410151e-02 
3.84375000000000e+00 7.79696380090494e-02 2.23582193720353e-02 
3.86458333333333e+00 7.74515805483414e-02 2.22674749193155e-02 
3.88541666666667e+00 7.69351080507660e-02 2.21770771985667e-02 
3.90625000000000e+00 7.64202162675982e-02 2.20870381657923e-02 
3.92708333333333e+00 7.59069831220669e-02 2.19973877070371e-02 
3.94791666666667e+00 7.53954223765179e-02 2.19082192858360e-02 
3.96875000000000e+00 7.48855247548933e-02 2.18196045803892e-02 
3.98958333333333e+00 7.43772800404401e-02 2.17315579412652e-02 
4.01041666666667e+00 7.38706782195924e-02 2.16439290396148e-02 
4.03125000000000e+00 7.33660497210318e-02 2.15565024097027e-02 
4.05208333333333e+00 7.28633928635812e-02 2.14693527775680e-02 
4.07291666666667e+00 7.23626998099909e-02 2.13825589687825e-02 
4.09375000000000e+00 7.18639629640641e-02 2.12961151623126e-02 
4.11458333333333e+00 7.13670151248654e-02 2.12100550892374e-02 
4.13541666666667e+00 7.08712140503113e-02 2.11243820849111e-02 
4.15625000000000e+00 7.03765599727472e-02 2.10389208399857e-02 
4.17708333333333e+00 6.98830564167059e-02 2.09535870965073e-02 
4.19791666666667e+00 6.93907011775677e-02 2.08683348232816e-02 
4.21875000000000e+00 6.88997923054118e-02 2.07831214818576e-02 
4.23958333333333e+00 6.84107857212312e-02 2.06979699698250e-02 
4.26041666666667e+00 6.79236785969741e-02 2.06129421369340e-02 
4.28125000000000e+00 6.74384688360420e-02 2.05280466867167e-02 
4.30208333333333e+00 6.69551540071201e-02 2.04432742329469e-02 
4.32291666666667e+00 6.64737554375796e-02 2.03586342689289e-02 
4.34375000000000e+00 6.59942852113426e-02 2.02742276819650e-02 
4.36458333333333e+00 6.55167365725611e-02 2.01901571521446e-02 
4.38541666666667e+00 6.50411013770469e-02 2.01064508282663e-02 
4.40625000000000e+00 6.45673715179230e-02 2.00230145658928e-02 
4.42708333333333e+00 6.40954673218545e-02 1.99396890118232e-02 
4.44791666666667e+00 6.36253698425807e-02 1.98564174331914e-02 
4.46875000000000e+00 6.31570784923414e-02 1.97732211492290e-02 
4.48958333333333e+00 6.26905927718267e-02 1.96901057439019e-02 
4.51041666666667e+00 6.22259120229439e-02 1.96071168891957e-02 
4.53125000000000e+00 6.17629539634880e-02 1.95243980555056e-02 
4.55208333333333e+00 6.13017122486881e-02 1.94420866082768e-02 
4.57291666666667e+00 6.08421779485196e-02 1.93602348324474e-02 
4.59375000000000e+00 6.03843419905981e-02 1.92788362801790e-02 
4.61458333333333e+00 5.99281962136162e-02 1.91978264767519e-02 
4.63541666666667e+00 5.94737368303375e-02 1.91170084681766e-02 
4.65625000000000e+00 5.90209662562213e-02 1.90361356638225e-02 
4.67708333333333e+00 5.85698902643935e-02 1.89550920081940e-02 
4.69791666666667e+00 5.81205151427964e-02 1.88738385832287e-02 
4.71875000000000e+00 5.76728245675618e-02 1.87922647567490e-02 
4.73958333333333e+00 5.72267947108362e-02 1.87102211118215e-02 
4.76041666666667e+00 5.67824411497708e-02 1.86276303798296e-02 
4.78125000000000e+00 5.63397797261342e-02 1.85444944542841e-02 
4.80208333333333e+00 5.58988258288436e-02 1.84608224132753e-02 
4.82291666666667e+00 5.54596341598513e-02 1.83766176356424e-02 
4.84375000000000e+00 5.50222452155289e-02 1.82919205714741e-02 
4.86458333333333e+00 5.45866717106205e-02 1.82067888882873e-02 
4.88541666666667e+00 5.41529255300263e-02 1.81212549051345e-02 
4.90625000000000e+00 5.37210181621994e-02 1.80353198375231e-02 
4.92708333333333e+00 5.32910138569042e-02 1.79489895571857e-02 
4.94791666666667e+00 5.28629361371267e-02 1.78623104571938e-02 
4.96875000000000e+00 5.24367941986500e-02 1.77753104654635e-02 
4.98958333333333e+00 5.20125971311883e-02 1.76880002770953e-02 
5.01041666666667e+00 5.15903536269666e-02 1.76004565926658e-02 
5.03125000000000e+00 5.11695401261297e-02 1.75128519637994e-02 
5.05208333333333e+00 5.07501647943515e-02 1.74251610458180e-02 
5.07291666666667e+00 5.03322369035758e-02 1.73373663968739e-02 
5.09375000000000e+00 4.99157654896000e-02 1.72494773117179e-02 
5.11458333333333e+00 4.95008311857685e-02 1.71615118616487e-02 
5.13541666666667e+00 4.90877267696892e-02 1.70735023838726e-02 
5.15625000000000e+00 4.86764548104617e-02 1.69855353684999e-02 
5.17708333333333e+00 4.82670167173923e-02 1.68976384993446e-02 
5.19791666666667e+00 4.78594137020722e-02 1.68098096605482e-02 
5.21875000000000e+00 4.74535974208034e-02 1.67220883903694e-02 
5.23958333333333e+00 4.70494935356685e-02 1.66345655641821e-02 
5.26041666666667e+00 4.66471005079925e-02 1.65472802782218e-02 
5.28125000000000e+00 4.62464168289491e-02 1.64602315112578e-02 
5.30208333333333e+00 4.58474409779980e-02 1.63734095390226e-02 
5.32291666666667e+00 4.54500250455090e-02 1.62868154694480e-02 
5.34375000000000e+00 4.50540723483068e-02 1.62004384577532e-02 
5.36458333333333e+00 4.46595846222276e-02 1.61142651258935e-02 
5.38541666666667e+00 4.42665636903860e-02 1.60282964228960e-02 
5.40625000000000e+00 4.38750111927460e-02 1.59424887505537e-02 
5.42708333333333e+00 4.34849334724374e-02 1.58567701055729e-02 
5.44791666666667e+00 4.30963368520233e-02 1.57711367922290e-02 
5.46875000000000e+00 4.27092256518102e-02 1.56856092102311e-02 
5.48958333333333e+00 4.23236039639622e-02 1.56001872588424e-02 
5.51041666666667e+00 4.19394758350443e-02 1.55148486373553e-02 
5.53125000000000e+00 4.15571966068409e-02 1.54294719092288e-02 
5.55208333333333e+00 4.11767706512234e-02 1.53440146080804e-02 
5.57291666666667e+00 4.07982033468528e-02 1.52584638138168e-02 
5.59375000000000e+00 4.04214997186193e-02 1.51728327578575e-02 
5.61458333333333e+00 4.00466417707214e-02 1.50871633248180e-02 
5.63541666666667e+00 3.96735424801528e-02 1.50015880993633e-02 
5.65625000000000e+00 3.93022018795641e-02 1.49162455643907e-02 
5.67708333333333e+00 3.89326168437481e-02 1.48311911163432e-02 
5.69791666666667e+00 3.85647843058274e-02 1.47464266814887e-02 
5.71875000000000e+00 3.81987452480925e-02 1.46618546330671e-02 
5.73958333333333e+00 3.78345667458214e-02 1.45772369006965e-02 
5.76041666666667e+00 3.74722562076810e-02 1.44924051157854e-02 
5.78125000000000e+00 3.71118227703626e-02 1.44073303869609e-02 
5.80208333333333e+00 3.67532752080821e-02 1.43219777473539e-02 
5.82291666666667e+00 3.63965624070835e-02 1.42363515927666e-02 
5.84375000000000e+00 3.60416536114281e-02 1.41505746751129e-02 
5.86458333333333e+00 3.56885553538945e-02 1.40647293061746e-02 
5.88541666666667e+00 3.53372734136058e-02 1.39788181721815e-02 
5.90625000000000e+00 3.49878135193829e-02 1.38928840694588e-02 
5.92708333333333e+00 3.46395937430526e-02 1.38071107711999e-02 
5.94791666666667e+00 3.42924758707639e-02 1.37215344265761e-02 
5.96875000000000e+00 3.39464679686443e-02 1.36361627741544e-02 
5.98958333333333e+00 3.36015776250514e-02 1.35510073735315e-02 
6.01041666666667e+00 3.32578121782967e-02 1.34658966242315e-02 
6.03125000000000e+00 3.29151966611538e-02 1.33804938018043e-02 
6.05208333333333e+00 3.25737548317693e-02 1.32946626646034e-02 
6.07291666666667e+00 3.22335100516769e-02 1.32084457086322e-02 
6.09375000000000e+00 3.18944848341381e-02 1.31218903000477e-02 
6.11458333333333e+00 3.15567937732815e-02 1.30351074592432e-02 
6.13541666666667e+00 3.12208231733280e-02 1.29481939351124e-02 
6.15625000000000e+00 3.08865813808356e-02 1.28612190177633e-02 
6.17708333333333e+00 3.05540773764907e-02 1.27741753827625e-02 
6.19791666666667e+00 3.02233197829684e-02 1.26870367796043e-02 
6.21875000000000e+00 2.98943212137444e-02 1.25996905628182e-02 
6.23958333333333e+00 2.95670994790509e-02 1.25120527569433e-02 
6.26041666666667e+00 2.92416692431245e-02 1.24241605368279e-02 
6.28125000000000e+00 2.89180431124806e-02 1.23360660755175e-02 
6.30208333333333e+00 2.85962331552718e-02 1.22478088865569e-02 
6.32291666666667e+00 2.82762493756642e-02 1.21593884742294e-02 
6.34375000000000e+00 2.79581036085837e-02 1.20707186050703e-02 
6.36458333333333e+00 2.76418111046621e-02 1.19817434537150e-02 
6.38541666666667e+00 2.73273870328066e-02 1.18924759016132e-02 
6.40625000000000e+00 2.70148459699200e-02 1.18027651954071e-02 
6.42708333333333e+00 2.67042209536172e-02 1.17123042510061e-02 
6.44791666666667e+00 2.63955453979243e-02 1.16209776233803e-02 
6.46875000000000e+00 2.60888488348253e-02 1.15288307678925e-02 
